Data from 42g_HRC06701__36__523.txt Node

Date: Thu Apr 18 02:42:39 CDT 2024
User: Estudiantes 2
Spectrometer: HR+C0670
Trigger mode: 4
Integration Time (sec): 1.000000E0
Scans to average: 1
Electric dark correction enabled: true
Nonlinearity correction enabled: false
Boxcar width: 0
XAxis mode: Wavelengths
Number of Pixels in Spectrum: 2048
>>>>>Begin Spectral Data<<<<<
407.81	-99.5
407.921	-99.5
408.032	-99.5
408.143	-153.5
408.254	-138.5
408.365	47.5
408.476	287.5
408.587	-22.5
408.699	18.5
408.81	-47.5
408.921	-72.5
409.032	-56.5
409.143	73.5
409.254	11.5
409.365	67.5
409.476	30.5
409.587	-12.5
409.698	66.5
409.809	111.5
409.92	-47.5
410.031	-23.5
410.142	123.5
410.253	39.5
410.364	50.5
410.475	-17.5
410.585	114.5
410.696	107.5
410.807	117.5
410.918	135.5
411.029	143.5
411.14	124.5
411.251	128.5
411.362	155.5
411.472	168.5
411.583	183.5
411.694	157.5
411.805	84.5
411.916	115.5
412.026	220.5
412.137	157.5
412.248	131.5
412.359	131.5
412.47	118.5
412.58	96.5
412.691	210.5
412.802	123.5
412.912	108.5
413.023	139.5
413.134	126.5
413.245	208.5
413.355	123.5
413.466	135.5
413.577	103.5
413.687	204.5
413.798	104.5
413.909	184.5
414.019	128.5
414.13	179.5
414.24	125.5
414.351	165.5
414.462	338.5
414.572	218.5
414.683	170.5
414.793	124.5
414.904	492.5
415.014	128.5
415.125	95.5
415.235	199.5
415.346	226.5
415.456	217.5
415.567	177.5
415.677	118.5
415.788	156.5
415.898	125.5
416.009	143.5
416.119	156.5
416.23	131.5
416.34	114.5
416.45	163.5
416.561	877.5
416.671	310.5
416.782	43.5
416.892	88.5
417.002	229.5
417.113	171.5
417.223	142.5
417.333	95.5
417.444	139.5
417.554	183.5
417.664	164.5
417.775	94.5
417.885	108.5
417.995	108.5
418.106	309.5
418.216	170.5
418.326	153.5
418.436	168.5
418.547	103.5
418.657	88.5
418.767	228.5
418.877	104.5
418.987	70.5
419.098	125.5
419.208	136.5
419.318	246.5
419.428	160.5
419.538	175.5
419.648	151.5
419.759	196.5
419.869	238.5
419.979	126.5
420.089	159.5
420.199	138.5
420.309	191.5
420.419	190.5
420.529	114.5
420.639	722.5
420.749	199.5
420.859	216.5
420.969	201.5
421.079	394.5
421.189	248.5
421.299	238.5
421.409	131.5
421.519	235.5
421.629	279.5
421.739	162.5
421.849	79.5
421.959	84.5
422.069	210.5
422.179	111.5
422.289	114.5
422.399	180.5
422.509	215.5
422.619	3839.5
422.729	549.5
422.838	120.5
422.948	159.5
423.058	137.5
423.168	138.5
423.278	112.5
423.388	169.5
423.498	228.5
423.607	168.5
423.717	423.5
423.827	470.5
423.937	147.5
424.046	263.5
424.156	240.5
424.266	135.5
424.376	350.5
424.485	347.5
424.595	191.5
424.705	110.5
424.815	172.5
424.924	643.5
425.034	227.5
425.144	85.5
425.253	227.5
425.363	217.5
425.473	252.5
425.582	159.5
425.692	158.5
425.801	112.5
425.911	315.5
426.021	239.5
426.13	295.5
426.24	375.5
426.349	333.5
426.459	207.5
426.568	134.5
426.678	352.5
426.787	204.5
426.897	174.5
427.006	183.5
427.116	244.5
427.225	151.5
427.335	244.5
427.444	227.5
427.554	246.5
427.663	212.5
427.773	225.5
427.882	241.5
427.992	161.5
428.101	252.5
428.21	157.5
428.32	189.5
428.429	160.5
428.539	513.5
428.648	146.5
428.757	262.5
428.867	261.5
428.976	331.5
429.085	233.5
429.195	222.5
429.304	192.5
429.413	237.5
429.523	270.5
429.632	262.5
429.741	207.5
429.85	194.5
429.96	238.5
430.069	168.5
430.178	165.5
430.287	509.5
430.397	215.5
430.506	240.5
430.615	213.5
430.724	232.5
430.833	225.5
430.943	251.5
431.052	227.5
431.161	166.5
431.27	242.5
431.379	206.5
431.488	315.5
431.597	310.5
431.706	340.5
431.816	234.5
431.925	203.5
432.034	207.5
432.143	266.5
432.252	198.5
432.361	367.5
432.47	271.5
432.579	233.5
432.688	199.5
432.797	293.5
432.906	166.5
433.015	277.5
433.124	736.5
433.233	270.5
433.342	288.5
433.451	302.5
433.56	237.5
433.669	244.5
433.778	242.5
433.886	253.5
433.995	236.5
434.104	371.5
434.213	287.5
434.322	180.5
434.431	354.5
434.54	304.5
434.649	367.5
434.757	270.5
434.866	303.5
434.975	303.5
435.084	322.5
435.193	358.5
435.301	529.5
435.41	651.5
435.519	722.5
435.628	276.5
435.737	226.5
435.845	225.5
435.954	220.5
436.063	246.5
436.171	280.5
436.28	320.5
436.389	309.5
436.498	266.5
436.606	300.5
436.715	423.5
436.823	239.5
436.932	212.5
437.041	235.5
437.149	276.5
437.258	210.5
437.367	241.5
437.475	195.5
437.584	429.5
437.692	273.5
437.801	1852.5
437.91	416.5
438.018	254.5
438.127	189.5
438.235	274.5
438.344	240.5
438.452	284.5
438.561	168.5
438.669	199.5
438.778	201.5
438.886	166.5
438.995	170.5
439.103	236.5
439.212	178.5
439.32	168.5
439.428	206.5
439.537	241.5
439.645	288.5
439.754	214.5
439.862	217.5
439.97	215.5
440.079	213.5
440.187	191.5
440.295	291.5
440.404	208.5
440.512	254.5
440.62	223.5
440.729	248.5
440.837	296.5
440.945	873.5
441.054	269.5
441.162	218.5
441.27	301.5
441.378	219.5
441.487	193.5
441.595	594.5
441.703	330.5
441.811	286.5
441.92	272.5
442.028	187.5
442.136	258.5
442.244	294.5
442.352	283.5
442.461	163.5
442.569	146.5
442.677	230.5
442.785	248.5
442.893	215.5
443.001	231.5
443.109	174.5
443.217	162.5
443.325	208.5
443.434	719.5
443.542	434.5
443.65	242.5
443.758	355.5
443.866	216.5
443.974	546.5
444.082	301.5
444.19	218.5
444.298	246.5
444.406	340.5
444.514	224.5
444.622	308.5
444.73	333.5
444.838	256.5
444.946	312.5
445.054	281.5
445.161	230.5
445.269	208.5
445.377	290.5
445.485	330.5
445.593	257.5
445.701	452.5
445.809	358.5
445.917	236.5
446.025	173.5
446.132	358.5
446.24	322.5
446.348	252.5
446.456	197.5
446.564	221.5
446.671	250.5
446.779	197.5
446.887	223.5
446.995	219.5
447.102	252.5
447.21	343.5
447.318	241.5
447.426	181.5
447.533	509.5
447.641	1468.5
447.749	376.5
447.856	240.5
447.964	244.5
448.072	336.5
448.179	179.5
448.287	328.5
448.395	269.5
448.502	213.5
448.61	262.5
448.718	182.5
448.825	268.5
448.933	279.5
449.04	201.5
449.148	213.5
449.256	263.5
449.363	299.5
449.471	243.5
449.578	271.5
449.686	212.5
449.793	330.5
449.901	205.5
450.008	252.5
450.116	255.5
450.223	211.5
450.331	359.5
450.438	269.5
450.546	272.5
450.653	319.5
450.76	295.5
450.868	281.5
450.975	462.5
451.083	310.5
451.19	309.5
451.297	305.5
451.405	341.5
451.512	234.5
451.619	401.5
451.727	404.5
451.834	260.5
451.941	245.5
452.049	277.5
452.156	324.5
452.263	303.5
452.371	290.5
452.478	359.5
452.585	423.5
452.692	218.5
452.8	303.5
452.907	430.5
453.014	349.5
453.121	309.5
453.229	345.5
453.336	364.5
453.443	409.5
453.55	288.5
453.657	323.5
453.765	348.5
453.872	363.5
453.979	369.5
454.086	305.5
454.193	358.5
454.3	301.5
454.407	418.5
454.514	418.5
454.621	295.5
454.729	282.5
454.836	330.5
454.943	348.5
455.05	383.5
455.157	417.5
455.264	335.5
455.371	370.5
455.478	305.5
455.585	1660.5
455.692	518.5
455.799	462.5
455.906	339.5
456.013	302.5
456.12	249.5
456.227	331.5
456.334	421.5
456.44	432.5
456.547	346.5
456.654	326.5
456.761	310.5
456.868	371.5
456.975	397.5
457.082	303.5
457.189	289.5
457.296	361.5
457.402	337.5
457.509	257.5
457.616	372.5
457.723	585.5
457.83	369.5
457.936	290.5
458.043	686.5
458.15	356.5
458.257	450.5
458.363	409.5
458.47	347.5
458.577	394.5
458.684	361.5
458.79	397.5
458.897	412.5
459.004	499.5
459.11	367.5
459.217	386.5
459.324	464.5
459.43	600.5
459.537	657.5
459.644	437.5
459.75	437.5
459.857	761.5
459.964	447.5
460.07	510.5
460.177	467.5
460.283	537.5
460.39	629.5
460.496	515.5
460.603	510.5
460.71	466.5
460.816	466.5
460.923	421.5
461.029	507.5
461.136	523.5
461.242	457.5
461.349	433.5
461.455	421.5
461.562	809.5
461.668	574.5
461.774	463.5
461.881	603.5
461.987	494.5
462.094	496.5
462.2	576.5
462.307	528.5
462.413	479.5
462.519	489.5
462.626	560.5
462.732	519.5
462.838	547.5
462.945	645.5
463.051	546.5
463.157	504.5
463.264	588.5
463.37	564.5
463.476	579.5
463.583	566.5
463.689	475.5
463.795	496.5
463.901	571.5
464.008	608.5
464.114	469.5
464.22	444.5
464.326	540.5
464.433	444.5
464.539	468.5
464.645	499.5
464.751	676.5
464.857	500.5
464.963	436.5
465.07	474.5
465.176	479.5
465.282	489.5
465.388	593.5
465.494	386.5
465.6	433.5
465.706	429.5
465.812	294.5
465.918	456.5
466.024	413.5
466.131	430.5
466.237	327.5
466.343	375.5
466.449	310.5
466.555	334.5
466.661	390.5
466.767	311.5
466.873	363.5
466.979	543.5
467.085	380.5
467.191	367.5
467.296	320.5
467.402	349.5
467.508	352.5
467.614	483.5
467.72	383.5
467.826	291.5
467.932	324.5
468.038	336.5
468.144	333.5
468.25	308.5
468.355	245.5
468.461	397.5
468.567	267.5
468.673	336.5
468.779	353.5
468.885	318.5
468.99	248.5
469.096	336.5
469.202	405.5
469.308	368.5
469.413	418.5
469.519	349.5
469.625	284.5
469.731	334.5
469.836	321.5
469.942	482.5
470.048	321.5
470.153	343.5
470.259	331.5
470.365	397.5
470.47	416.5
470.576	379.5
470.682	298.5
470.787	299.5
470.893	278.5
470.999	334.5
471.104	378.5
471.21	319.5
471.315	200.5
471.421	239.5
471.527	497.5
471.632	340.5
471.738	324.5
471.843	290.5
471.949	332.5
472.054	336.5
472.16	269.5
472.265	292.5
472.371	247.5
472.476	316.5
472.582	422.5
472.687	263.5
472.793	204.5
472.898	352.5
473.003	246.5
473.109	229.5
473.214	278.5
473.32	191.5
473.425	288.5
473.53	292.5
473.636	272.5
473.741	225.5
473.847	219.5
473.952	300.5
474.057	274.5
474.163	348.5
474.268	271.5
474.373	326.5
474.478	212.5
474.584	239.5
474.689	319.5
474.794	266.5
474.9	525.5
475.005	258.5
475.11	396.5
475.215	243.5
475.321	295.5
475.426	382.5
475.531	393.5
475.636	252.5
475.741	214.5
475.846	360.5
475.952	510.5
476.057	325.5
476.162	347.5
476.267	401.5
476.372	578.5
476.477	278.5
476.582	395.5
476.687	297.5
476.793	298.5
476.898	255.5
477.003	355.5
477.108	274.5
477.213	221.5
477.318	267.5
477.423	308.5
477.528	347.5
477.633	359.5
477.738	343.5
477.843	268.5
477.948	283.5
478.053	322.5
478.158	216.5
478.263	309.5
478.368	334.5
478.473	384.5
478.578	348.5
478.682	240.5
478.787	376.5
478.892	294.5
478.997	356.5
479.102	324.5
479.207	246.5
479.312	401.5
479.417	365.5
479.521	279.5
479.626	407.5
479.731	413.5
479.836	300.5
479.941	462.5
480.045	432.5
480.15	360.5
480.255	326.5
480.36	289.5
480.465	411.5
480.569	499.5
480.674	312.5
480.779	288.5
480.883	249.5
480.988	347.5
481.093	352.5
481.197	320.5
481.302	352.5
481.407	412.5
481.511	2268.5
481.616	485.5
481.721	337.5
481.825	590.5
481.93	296.5
482.035	300.5
482.139	396.5
482.244	336.5
482.348	347.5
482.453	387.5
482.557	401.5
482.662	355.5
482.767	299.5
482.871	323.5
482.976	290.5
483.08	365.5
483.185	539.5
483.289	285.5
483.394	308.5
483.498	385.5
483.603	304.5
483.707	341.5
483.811	440.5
483.916	475.5
484.02	362.5
484.125	486.5
484.229	409.5
484.333	468.5
484.438	336.5
484.542	396.5
484.647	302.5
484.751	310.5
484.855	384.5
484.96	331.5
485.064	333.5
485.168	436.5
485.273	306.5
485.377	353.5
485.481	587.5
485.585	384.5
485.69	328.5
485.794	388.5
485.898	480.5
486.002	344.5
486.107	361.5
486.211	421.5
486.315	388.5
486.419	444.5
486.524	482.5
486.628	345.5
486.732	343.5
486.836	391.5
486.94	476.5
487.044	419.5
487.148	370.5
487.253	357.5
487.357	371.5
487.461	552.5
487.565	479.5
487.669	380.5
487.773	414.5
487.877	543.5
487.981	456.5
488.085	425.5
488.189	430.5
488.293	562.5
488.397	845.5
488.501	471.5
488.605	471.5
488.709	414.5
488.813	392.5
488.917	425.5
489.021	408.5
489.125	693.5
489.229	488.5
489.333	531.5
489.437	457.5
489.541	449.5
489.645	412.5
489.749	400.5
489.853	491.5
489.956	442.5
490.06	463.5
490.164	446.5
490.268	432.5
490.372	467.5
490.476	469.5
490.579	441.5
490.683	1106.5
490.787	517.5
490.891	435.5
490.995	476.5
491.098	449.5
491.202	410.5
491.306	501.5
491.41	424.5
491.513	382.5
491.617	464.5
491.721	609.5
491.824	711.5
491.928	517.5
492.032	687.5
492.136	452.5
492.239	391.5
492.343	500.5
492.446	818.5
492.55	547.5
492.654	421.5
492.757	374.5
492.861	496.5
492.965	473.5
493.068	473.5
493.172	416.5
493.275	406.5
493.379	388.5
493.482	538.5
493.586	603.5
493.689	731.5
493.793	420.5
493.896	548.5
494	577.5
494.103	549.5
494.207	788.5
494.31	895.5
494.414	520.5
494.517	487.5
494.621	419.5
494.724	475.5
494.828	396.5
494.931	411.5
495.034	436.5
495.138	561.5
495.241	435.5
495.345	1308.5
495.448	630.5
495.551	447.5
495.655	510.5
495.758	401.5
495.861	392.5
495.965	474.5
496.068	494.5
496.171	471.5
496.274	452.5
496.378	525.5
496.481	519.5
496.584	521.5
496.687	558.5
496.791	468.5
496.894	515.5
496.997	525.5
497.1	495.5
497.204	449.5
497.307	435.5
497.41	643.5
497.513	684.5
497.616	483.5
497.719	476.5
497.823	468.5
497.926	459.5
498.029	560.5
498.132	479.5
498.235	478.5
498.338	558.5
498.441	615.5
498.544	470.5
498.647	580.5
498.75	742.5
498.853	751.5
498.956	615.5
499.059	861.5
499.163	611.5
499.266	646.5
499.369	681.5
499.471	677.5
499.574	769.5
499.677	722.5
499.78	752.5
499.883	707.5
499.986	790.5
500.089	784.5
500.192	808.5
500.295	795.5
500.398	849.5
500.501	816.5
500.604	774.5
500.707	765.5
500.809	748.5
500.912	773.5
501.015	849.5
501.118	651.5
501.221	747.5
501.324	692.5
501.426	669.5
501.529	604.5
501.632	586.5
501.735	511.5
501.837	473.5
501.94	472.5
502.043	551.5
502.146	519.5
502.248	490.5
502.351	476.5
502.454	487.5
502.557	448.5
502.659	495.5
502.762	428.5
502.865	427.5
502.967	388.5
503.07	472.5
503.173	457.5
503.275	421.5
503.378	478.5
503.48	387.5
503.583	488.5
503.686	465.5
503.788	727.5
503.891	428.5
503.993	627.5
504.096	435.5
504.198	398.5
504.301	352.5
504.403	460.5
504.506	373.5
504.608	419.5
504.711	412.5
504.813	461.5
504.916	432.5
505.018	397.5
505.121	350.5
505.223	425.5
505.326	356.5
505.428	490.5
505.531	371.5
505.633	415.5
505.735	356.5
505.838	321.5
505.94	359.5
506.042	337.5
506.145	307.5
506.247	407.5
506.35	310.5
506.452	418.5
506.554	384.5
506.656	425.5
506.759	341.5
506.861	375.5
506.963	335.5
507.066	440.5
507.168	418.5
507.27	295.5
507.372	337.5
507.475	318.5
507.577	388.5
507.679	338.5
507.781	277.5
507.883	322.5
507.986	302.5
508.088	364.5
508.19	359.5
508.292	360.5
508.394	346.5
508.496	216.5
508.598	295.5
508.701	314.5
508.803	320.5
508.905	298.5
509.007	351.5
509.109	385.5
509.211	371.5
509.313	294.5
509.415	301.5
509.517	303.5
509.619	273.5
509.721	394.5
509.823	277.5
509.925	434.5
510.027	353.5
510.129	339.5
510.231	333.5
510.333	294.5
510.435	279.5
510.537	283.5
510.639	377.5
510.741	333.5
510.843	343.5
510.945	331.5
511.047	424.5
511.148	340.5
511.25	289.5
511.352	355.5
511.454	247.5
511.556	345.5
511.658	300.5
511.76	431.5
511.861	433.5
511.963	263.5
512.065	327.5
512.167	290.5
512.268	464.5
512.37	388.5
512.472	301.5
512.574	360.5
512.676	440.5
512.777	273.5
512.879	291.5
512.981	286.5
513.082	349.5
513.184	284.5
513.286	798.5
513.387	446.5
513.489	444.5
513.591	363.5
513.692	454.5
513.794	363.5
513.896	253.5
513.997	326.5
514.099	275.5
514.2	340.5
514.302	325.5
514.404	342.5
514.505	297.5
514.607	369.5
514.708	394.5
514.81	365.5
514.911	397.5
515.013	460.5
515.114	376.5
515.216	301.5
515.317	360.5
515.419	309.5
515.52	339.5
515.622	336.5
515.723	409.5
515.825	439.5
515.926	359.5
516.027	338.5
516.129	329.5
516.23	363.5
516.332	431.5
516.433	326.5
516.534	432.5
516.636	374.5
516.737	325.5
516.838	1389.5
516.94	564.5
517.041	396.5
517.142	489.5
517.244	531.5
517.345	469.5
517.446	426.5
517.547	450.5
517.649	411.5
517.75	380.5
517.851	387.5
517.952	674.5
518.054	464.5
518.155	540.5
518.256	436.5
518.357	642.5
518.458	366.5
518.56	360.5
518.661	440.5
518.762	401.5
518.863	519.5
518.964	539.5
519.065	320.5
519.166	391.5
519.268	379.5
519.369	679.5
519.47	388.5
519.571	402.5
519.672	348.5
519.773	331.5
519.874	417.5
519.975	468.5
520.076	414.5
520.177	497.5
520.278	451.5
520.379	418.5
520.48	296.5
520.581	386.5
520.682	357.5
520.783	338.5
520.884	415.5
520.985	455.5
521.086	347.5
521.187	397.5
521.288	409.5
521.389	438.5
521.489	351.5
521.59	381.5
521.691	387.5
521.792	349.5
521.893	477.5
521.994	547.5
522.095	469.5
522.195	478.5
522.296	596.5
522.397	446.5
522.498	420.5
522.599	382.5
522.699	388.5
522.8	418.5
522.901	583.5
523.002	445.5
523.102	622.5
523.203	452.5
523.304	594.5
523.405	374.5
523.505	430.5
523.606	483.5
523.707	447.5
523.807	426.5
523.908	427.5
524.009	575.5
524.109	438.5
524.21	400.5
524.31	473.5
524.411	544.5
524.512	592.5
524.612	494.5
524.713	625.5
524.813	456.5
524.914	679.5
525.014	6631.5
525.115	974.5
525.216	425.5
525.316	431.5
525.417	471.5
525.517	431.5
525.618	406.5
525.718	326.5
525.819	352.5
525.919	474.5
526.019	364.5
526.12	502.5
526.22	401.5
526.321	356.5
526.421	325.5
526.522	395.5
526.622	297.5
526.722	339.5
526.823	431.5
526.923	465.5
527.023	498.5
527.124	381.5
527.224	517.5
527.324	336.5
527.425	392.5
527.525	326.5
527.625	379.5
527.726	405.5
527.826	545.5
527.926	404.5
528.026	441.5
528.127	417.5
528.227	407.5
528.327	503.5
528.427	450.5
528.528	486.5
528.628	444.5
528.728	446.5
528.828	553.5
528.928	515.5
529.029	418.5
529.129	492.5
529.229	443.5
529.329	473.5
529.429	501.5
529.529	563.5
529.629	478.5
529.729	434.5
529.829	606.5
529.93	403.5
530.03	522.5
530.13	496.5
530.23	448.5
530.33	556.5
530.43	437.5
530.53	467.5
530.63	429.5
530.73	388.5
530.83	320.5
530.93	333.5
531.03	335.5
531.13	487.5
531.23	349.5
531.33	437.5
531.429	567.5
531.529	594.5
531.629	434.5
531.729	391.5
531.829	348.5
531.929	302.5
532.029	409.5
532.129	379.5
532.229	409.5
532.328	414.5
532.428	400.5
532.528	327.5
532.628	338.5
532.728	446.5
532.827	318.5
532.927	430.5
533.027	403.5
533.127	527.5
533.227	451.5
533.326	423.5
533.426	390.5
533.526	513.5
533.625	580.5
533.725	710.5
533.825	511.5
533.924	365.5
534.024	303.5
534.124	324.5
534.223	414.5
534.323	834.5
534.423	394.5
534.522	395.5
534.622	342.5
534.722	376.5
534.821	398.5
534.921	299.5
535.02	339.5
535.12	446.5
535.219	475.5
535.319	514.5
535.419	413.5
535.518	352.5
535.618	446.5
535.717	475.5
535.817	338.5
535.916	287.5
536.016	442.5
536.115	318.5
536.215	304.5
536.314	337.5
536.413	265.5
536.513	340.5
536.612	372.5
536.712	250.5
536.811	332.5
536.91	309.5
537.01	270.5
537.109	385.5
537.209	352.5
537.308	286.5
537.407	290.5
537.507	341.5
537.606	351.5
537.705	400.5
537.805	371.5
537.904	311.5
538.003	400.5
538.102	444.5
538.202	387.5
538.301	396.5
538.4	371.5
538.499	382.5
538.599	405.5
538.698	572.5
538.797	333.5
538.896	512.5
538.995	402.5
539.095	418.5
539.194	619.5
539.293	349.5
539.392	331.5
539.491	402.5
539.59	379.5
539.689	453.5
539.789	460.5
539.888	270.5
539.987	210.5
540.086	340.5
540.185	408.5
540.284	390.5
540.383	365.5
540.482	364.5
540.581	406.5
540.68	380.5
540.779	405.5
540.878	380.5
540.977	432.5
541.076	375.5
541.175	463.5
541.274	647.5
541.373	498.5
541.472	467.5
541.571	295.5
541.67	1708.5
541.769	659.5
541.868	377.5
541.966	427.5
542.065	419.5
542.164	413.5
542.263	337.5
542.362	400.5
542.461	501.5
542.56	455.5
542.658	436.5
542.757	372.5
542.856	312.5
542.955	343.5
543.054	314.5
543.152	466.5
543.251	395.5
543.35	550.5
543.449	418.5
543.547	383.5
543.646	364.5
543.745	464.5
543.843	489.5
543.942	439.5
544.041	400.5
544.14	417.5
544.238	389.5
544.337	645.5
544.436	463.5
544.534	558.5
544.633	444.5
544.731	423.5
544.83	447.5
544.929	419.5
545.027	446.5
545.126	347.5
545.224	478.5
545.323	402.5
545.421	371.5
545.52	432.5
545.619	446.5
545.717	404.5
545.816	478.5
545.914	465.5
546.013	677.5
546.111	589.5
546.209	398.5
546.308	397.5
546.406	389.5
546.505	580.5
546.603	479.5
546.702	355.5
546.8	389.5
546.899	435.5
546.997	473.5
547.095	421.5
547.194	487.5
547.292	433.5
547.39	470.5
547.489	422.5
547.587	760.5
547.685	393.5
547.784	622.5
547.882	532.5
547.98	364.5
548.079	436.5
548.177	408.5
548.275	351.5
548.373	543.5
548.472	384.5
548.57	446.5
548.668	458.5
548.766	358.5
548.864	575.5
548.963	397.5
549.061	582.5
549.159	427.5
549.257	455.5
549.355	420.5
549.454	412.5
549.552	480.5
549.65	384.5
549.748	408.5
549.846	411.5
549.944	376.5
550.042	370.5
550.14	439.5
550.238	373.5
550.336	356.5
550.434	401.5
550.532	312.5
550.631	484.5
550.729	461.5
550.827	448.5
550.925	379.5
551.023	387.5
551.121	357.5
551.218	301.5
551.316	291.5
551.414	356.5
551.512	271.5
551.61	412.5
551.708	503.5
551.806	390.5
551.904	300.5
552.002	344.5
552.1	397.5
552.198	324.5
552.296	538.5
552.393	581.5
552.491	529.5
552.589	511.5
552.687	577.5
552.785	439.5
552.882	591.5
552.98	708.5
553.078	519.5
553.176	511.5
553.274	394.5
553.371	428.5
553.469	450.5
553.567	414.5
553.665	405.5
553.762	874.5
553.86	588.5
553.958	552.5
554.055	439.5
554.153	493.5
554.251	491.5
554.348	476.5
554.446	386.5
554.544	468.5
554.641	768.5
554.739	400.5
554.837	408.5
554.934	458.5
555.032	390.5
555.129	335.5
555.227	686.5
555.324	1699.5
555.422	556.5
555.519	458.5
555.617	390.5
555.715	298.5
555.812	2285.5
555.91	536.5
556.007	435.5
556.105	381.5
556.202	440.5
556.299	280.5
556.397	364.5
556.494	383.5
556.592	326.5
556.689	403.5
556.787	404.5
556.884	290.5
556.981	326.5
557.079	392.5
557.176	398.5
557.273	408.5
557.371	468.5
557.468	415.5
557.566	414.5
557.663	363.5
557.76	418.5
557.857	347.5
557.955	405.5
558.052	510.5
558.149	504.5
558.247	525.5
558.344	395.5
558.441	351.5
558.538	375.5
558.636	354.5
558.733	409.5
558.83	401.5
558.927	392.5
559.024	449.5
559.122	313.5
559.219	361.5
559.316	509.5
559.413	491.5
559.51	344.5
559.607	413.5
559.704	444.5
559.801	427.5
559.899	373.5
559.996	689.5
560.093	429.5
560.19	325.5
560.287	521.5
560.384	584.5
560.481	379.5
560.578	436.5
560.675	338.5
560.772	468.5
560.869	385.5
560.966	563.5
561.063	365.5
561.16	465.5
561.257	422.5
561.354	402.5
561.451	369.5
561.548	461.5
561.645	566.5
561.742	346.5
561.838	401.5
561.935	390.5
562.032	340.5
562.129	373.5
562.226	362.5
562.323	358.5
562.42	460.5
562.516	378.5
562.613	302.5
562.71	368.5
562.807	1179.5
562.904	382.5
563	392.5
563.097	413.5
563.194	364.5
563.291	327.5
563.387	376.5
563.484	420.5
563.581	338.5
563.678	319.5
563.774	838.5
563.871	425.5
563.968	386.5
564.064	458.5
564.161	332.5
564.258	354.5
564.354	468.5
564.451	437.5
564.548	412.5
564.644	407.5
564.741	408.5
564.837	317.5
564.934	374.5
565.031	430.5
565.127	371.5
565.224	392.5
565.32	537.5
565.417	333.5
565.513	429.5
565.61	521.5
565.706	485.5
565.803	454.5
565.899	398.5
565.996	483.5
566.092	424.5
566.189	399.5
566.285	434.5
566.382	417.5
566.478	507.5
566.574	578.5
566.671	414.5
566.767	423.5
566.864	477.5
566.96	512.5
567.056	389.5
567.153	691.5
567.249	549.5
567.345	514.5
567.442	561.5
567.538	566.5
567.634	444.5
567.731	407.5
567.827	525.5
567.923	490.5
568.019	351.5
568.116	351.5
568.212	365.5
568.308	425.5
568.404	419.5
568.501	408.5
568.597	394.5
568.693	348.5
568.789	1113.5
568.885	392.5
568.982	366.5
569.078	370.5
569.174	439.5
569.27	286.5
569.366	421.5
569.462	328.5
569.558	285.5
569.655	370.5
569.751	309.5
569.847	333.5
569.943	278.5
570.039	280.5
570.135	761.5
570.231	297.5
570.327	479.5
570.423	427.5
570.519	340.5
570.615	318.5
570.711	381.5
570.807	381.5
570.903	275.5
570.999	388.5
571.095	340.5
571.191	316.5
571.287	417.5
571.383	377.5
571.479	344.5
571.574	479.5
571.67	368.5
571.766	532.5
571.862	343.5
571.958	296.5
572.054	387.5
572.15	240.5
572.246	295.5
572.341	371.5
572.437	331.5
572.533	387.5
572.629	291.5
572.725	302.5
572.82	307.5
572.916	415.5
573.012	247.5
573.108	360.5
573.203	284.5
573.299	223.5
573.395	223.5
573.49	266.5
573.586	221.5
573.682	258.5
573.778	457.5
573.873	232.5
573.969	208.5
574.065	270.5
574.16	275.5
574.256	276.5
574.351	357.5
574.447	231.5
574.543	269.5
574.638	337.5
574.734	360.5
574.829	504.5
574.925	307.5
575.02	323.5
575.116	253.5
575.212	310.5
575.307	468.5
575.403	299.5
575.498	313.5
575.594	233.5
575.689	366.5
575.784	318.5
575.88	310.5
575.975	384.5
576.071	268.5
576.166	229.5
576.262	292.5
576.357	253.5
576.452	444.5
576.548	360.5
576.643	227.5
576.739	302.5
576.834	319.5
576.929	313.5
577.025	1027.5
577.12	290.5
577.215	262.5
577.311	273.5
577.406	347.5
577.501	481.5
577.597	167.5
577.692	373.5
577.787	420.5
577.882	237.5
577.978	249.5
578.073	226.5
578.168	215.5
578.263	220.5
578.358	238.5
578.454	277.5
578.549	176.5
578.644	212.5
578.739	367.5
578.834	173.5
578.929	199.5
579.025	237.5
579.12	304.5
579.215	480.5
579.31	459.5
579.405	184.5
579.5	296.5
579.595	242.5
579.69	228.5
579.785	208.5
579.88	225.5
579.975	259.5
580.07	196.5
580.165	228.5
580.26	403.5
580.355	270.5
580.45	211.5
580.545	210.5
580.64	283.5
580.735	285.5
580.83	286.5
580.925	242.5
581.02	195.5
581.115	189.5
581.21	196.5
581.305	198.5
581.4	200.5
581.495	260.5
581.589	253.5
581.684	121.5
581.779	287.5
581.874	279.5
581.969	340.5
582.064	184.5
582.158	251.5
582.253	194.5
582.348	211.5
582.443	272.5
582.537	184.5
582.632	453.5
582.727	263.5
582.822	207.5
582.916	176.5
583.011	225.5
583.106	332.5
583.201	188.5
583.295	237.5
583.39	220.5
583.485	155.5
583.579	1884.5
583.674	415.5
583.769	470.5
583.863	209.5
583.958	248.5
584.052	118.5
584.147	185.5
584.242	169.5
584.336	249.5
584.431	368.5
584.525	190.5
584.62	405.5
584.714	259.5
584.809	212.5
584.903	278.5
584.998	294.5
585.092	110.5
585.187	213.5
585.281	177.5
585.376	248.5
585.47	259.5
585.565	243.5
585.659	120.5
585.754	166.5
585.848	294.5
585.942	151.5
586.037	180.5
586.131	1532.5
586.226	281.5
586.32	257.5
586.414	131.5
586.509	327.5
586.603	269.5
586.697	210.5
586.792	208.5
586.886	119.5
586.98	308.5
587.075	272.5
587.169	161.5
587.263	388.5
587.357	279.5
587.452	135.5
587.546	276.5
587.64	156.5
587.734	237.5
587.829	227.5
587.923	204.5
588.017	238.5
588.111	153.5
588.205	275.5
588.3	200.5
588.394	112.5
588.488	156.5
588.582	259.5
588.676	252.5
588.77	365.5
588.864	734.5
588.958	636.5
589.052	386.5
589.147	404.5
589.241	326.5
589.335	284.5
589.429	532.5
589.523	551.5
589.617	468.5
589.711	325.5
589.805	312.5
589.899	317.5
589.993	191.5
590.087	161.5
590.181	155.5
590.275	204.5
590.369	142.5
590.462	128.5
590.556	102.5
590.65	139.5
590.744	195.5
590.838	120.5
590.932	163.5
591.026	243.5
591.12	351.5
591.214	158.5
591.307	217.5
591.401	163.5
591.495	202.5
591.589	132.5
591.683	223.5
591.777	240.5
591.87	589.5
591.964	260.5
592.058	151.5
592.152	248.5
592.245	210.5
592.339	253.5
592.433	310.5
592.527	220.5
592.62	173.5
592.714	170.5
592.808	256.5
592.901	258.5
592.995	133.5
593.089	435.5
593.182	307.5
593.276	198.5
593.37	130.5
593.463	184.5
593.557	193.5
593.65	146.5
593.744	187.5
593.837	263.5
593.931	132.5
594.025	3296.5
594.118	550.5
594.212	167.5
594.305	118.5
594.399	268.5
594.492	560.5
594.586	219.5
594.679	152.5
594.773	150.5
594.866	193.5
594.96	155.5
595.053	138.5
595.146	154.5
595.24	126.5
595.333	184.5
595.427	59.5
595.52	120.5
595.614	320.5
595.707	167.5
595.8	159.5
595.894	228.5
595.987	163.5
596.08	74.5
596.174	569.5
596.267	299.5
596.36	253.5
596.454	321.5
596.547	290.5
596.64	140.5
596.733	109.5
596.827	308.5
596.92	146.5
597.013	92.5
597.106	117.5
597.2	108.5
597.293	80.5
597.386	446.5
597.479	256.5
597.572	141.5
597.666	77.5
597.759	152.5
597.852	213.5
597.945	110.5
598.038	156.5
598.131	126.5
598.224	107.5
598.317	231.5
598.411	185.5
598.504	99.5
598.597	206.5
598.69	164.5
598.783	111.5
598.876	161.5
598.969	163.5
599.062	62.5
599.155	188.5
599.248	169.5
599.341	159.5
599.434	98.5
599.527	214.5
599.62	163.5
599.713	50.5
599.806	193.5
599.899	360.5
599.991	110.5
600.084	375.5
600.177	161.5
600.27	86.5
600.363	305.5
600.456	164.5
600.549	177.5
600.642	95.5
600.734	111.5
600.827	150.5
600.92	205.5
601.013	174.5
601.106	239.5
601.199	127.5
601.291	98.5
601.384	174.5
601.477	336.5
601.57	248.5
601.662	158.5
601.755	167.5
601.848	188.5
601.94	129.5
602.033	259.5
602.126	187.5
602.219	120.5
602.311	308.5
602.404	111.5
602.497	136.5
602.589	149.5
602.682	177.5
602.774	174.5
602.867	175.5
602.96	160.5
603.052	135.5
603.145	127.5
603.237	177.5
603.33	123.5
603.422	278.5
603.515	124.5
603.608	172.5
603.7	163.5
603.793	164.5
603.885	135.5
603.978	129.5
604.07	147.5
604.163	117.5
604.255	163.5
604.347	116.5
604.44	132.5
604.532	216.5
604.625	153.5
604.717	182.5
604.81	184.5
604.902	84.5
604.994	110.5
605.087	89.5
605.179	113.5
605.271	183.5
605.364	147.5
605.456	189.5
605.548	89.5
605.641	136.5
605.733	123.5
605.825	140.5
605.918	111.5
606.01	283.5
606.102	637.5
606.194	217.5
606.287	273.5
606.379	114.5
606.471	209.5
606.563	203.5
606.655	207.5
606.748	232.5
606.84	159.5
606.932	229.5
607.024	148.5
607.116	146.5
607.208	117.5
607.301	119.5
607.393	148.5
607.485	150.5
607.577	197.5
607.669	270.5
607.761	208.5
607.853	394.5
607.945	136.5
608.037	92.5
608.129	109.5
608.221	120.5
608.313	127.5
608.405	193.5
608.497	156.5
608.589	142.5
608.681	164.5
608.773	223.5
608.865	211.5
608.957	159.5
609.049	119.5
609.141	211.5
609.233	141.5
609.325	75.5
609.417	136.5
609.509	243.5
609.601	300.5
609.693	236.5
609.784	140.5
609.876	146.5
609.968	190.5
610.06	2520.5
610.152	444.5
610.244	1016.5
610.335	198.5
610.427	189.5
610.519	132.5
610.611	181.5
610.702	163.5
610.794	173.5
610.886	218.5
610.978	231.5
611.069	623.5
611.161	204.5
611.253	245.5
611.344	147.5
611.436	61.5
611.528	214.5
611.62	140.5
611.711	138.5
611.803	92.5
611.894	111.5
611.986	95.5
612.078	163.5
612.169	196.5
612.261	106.5
612.352	70.5
612.444	95.5
612.536	238.5
612.627	136.5
612.719	56.5
612.81	102.5
612.902	40.5
612.993	151.5
613.085	159.5
613.176	25.5
613.268	113.5
613.359	145.5
613.451	102.5
613.542	121.5
613.634	94.5
613.725	148.5
613.816	197.5
613.908	60.5
613.999	138.5
614.091	36.5
614.182	39.5
614.273	155.5
614.365	31.5
614.456	-25.5
614.547	79.5
614.639	-13.5
614.73	60.5
614.821	138.5
614.913	24.5
615.004	-49.5
615.095	-12.5
615.187	10.5
