Data from 42g_HRC06701__14__501.txt Node

Date: Thu Apr 18 02:42:17 CDT 2024
User: Estudiantes 2
Spectrometer: HR+C0670
Trigger mode: 4
Integration Time (sec): 1.000000E0
Scans to average: 1
Electric dark correction enabled: true
Nonlinearity correction enabled: false
Boxcar width: 0
XAxis mode: Wavelengths
Number of Pixels in Spectrum: 2048
>>>>>Begin Spectral Data<<<<<
407.81	-162.38
407.921	-162.38
408.032	-162.38
408.143	-116.38
408.254	-175.38
408.365	20.62
408.476	314.62
408.587	-18.38
408.699	-23.38
408.81	-19.38
408.921	-26.38
409.032	-38.38
409.143	50.62
409.254	87.62
409.365	45.62
409.476	-40.38
409.587	39.62
409.698	61.62
409.809	110.62
409.92	-27.38
410.031	-9.38
410.142	63.62
410.253	16.62
410.364	62.62
410.475	700.62
410.585	3347.62
410.696	3689.62
410.807	3620.62
410.918	3694.62
411.029	3793.62
411.14	3720.62
411.251	3656.62
411.362	3686.62
411.472	3823.62
411.583	3655.62
411.694	3892.62
411.805	3724.62
411.916	3815.62
412.026	3870.62
412.137	3852.62
412.248	3823.62
412.359	3777.62
412.47	3632.62
412.58	3613.62
412.691	3664.62
412.802	3749.62
412.912	3696.62
413.023	3663.62
413.134	3685.62
413.245	3820.62
413.355	3672.62
413.466	3592.62
413.577	3601.62
413.687	3737.62
413.798	3539.62
413.909	3764.62
414.019	3689.62
414.13	3762.62
414.24	3729.62
414.351	3794.62
414.462	4023.62
414.572	3849.62
414.683	3850.62
414.793	3778.62
414.904	4122.62
415.014	3815.62
415.125	3671.62
415.235	3760.62
415.346	3935.62
415.456	3985.62
415.567	3717.62
415.677	3653.62
415.788	3826.62
415.898	3669.62
416.009	3620.62
416.119	3809.62
416.23	3754.62
416.34	3672.62
416.45	3861.62
416.561	4507.62
416.671	3843.62
416.782	3789.62
416.892	3856.62
417.002	3753.62
417.113	3956.62
417.223	3878.62
417.333	3817.62
417.444	3849.62
417.554	3929.62
417.664	4010.62
417.775	3840.62
417.885	4018.62
417.995	3993.62
418.106	4271.62
418.216	4086.62
418.326	4236.62
418.436	4203.62
418.547	4227.62
418.657	4275.62
418.767	4400.62
418.877	4365.62
418.987	4278.62
419.098	4279.62
419.208	4400.62
419.318	4454.62
419.428	4394.62
419.538	4221.62
419.648	4373.62
419.759	4372.62
419.869	4374.62
419.979	4336.62
420.089	4320.62
420.199	4366.62
420.309	4396.62
420.419	4380.62
420.529	4345.62
420.639	4911.62
420.749	4576.62
420.859	4518.62
420.969	4505.62
421.079	4734.62
421.189	4564.62
421.299	4494.62
421.409	4385.62
421.519	4664.62
421.629	4691.62
421.739	4571.62
421.849	4694.62
421.959	4615.62
422.069	4744.62
422.179	4831.62
422.289	4879.62
422.399	4943.62
422.509	5179.62
422.619	8769.62
422.729	5221.62
422.838	5034.62
422.948	5145.62
423.058	5111.62
423.168	5123.62
423.278	5270.62
423.388	5240.62
423.498	5460.62
423.607	5430.62
423.717	5769.62
423.827	5800.62
423.937	5488.62
424.046	5574.62
424.156	5627.62
424.266	5465.62
424.376	5868.62
424.485	5708.62
424.595	5610.62
424.705	5612.62
424.815	5579.62
424.924	6143.62
425.034	5645.62
425.144	5540.62
425.253	5557.62
425.363	5805.62
425.473	5749.62
425.582	5517.62
425.692	5578.62
425.801	5530.62
425.911	5874.62
426.021	5782.62
426.13	5937.62
426.24	6012.62
426.349	5959.62
426.459	5919.62
426.568	5751.62
426.678	5996.62
426.787	6000.62
426.897	6004.62
427.006	5790.62
427.116	5970.62
427.225	6041.62
427.335	6122.62
427.444	5903.62
427.554	6103.62
427.663	6112.62
427.773	6153.62
427.882	6187.62
427.992	6119.62
428.101	6289.62
428.21	6158.62
428.32	6298.62
428.429	6142.62
428.539	6574.62
428.648	6431.62
428.757	6333.62
428.867	6481.62
428.976	6675.62
429.085	6569.62
429.195	6495.62
429.304	6614.62
429.413	6596.62
429.523	6661.62
429.632	6708.62
429.741	6760.62
429.85	6638.62
429.96	6976.62
430.069	6844.62
430.178	6790.62
430.287	7042.62
430.397	6889.62
430.506	6832.62
430.615	6912.62
430.724	7019.62
430.833	6854.62
430.943	7048.62
431.052	7152.62
431.161	7169.62
431.27	7326.62
431.379	7334.62
431.488	7702.62
431.597	7567.62
431.706	7711.62
431.816	7752.62
431.925	7549.62
432.034	7519.62
432.143	7711.62
432.252	7583.62
432.361	7537.62
432.47	7558.62
432.579	7614.62
432.688	7463.62
432.797	7584.62
432.906	7563.62
433.015	7678.62
433.124	8017.62
433.233	7855.62
433.342	7568.62
433.451	7713.62
433.56	7800.62
433.669	7740.62
433.778	7700.62
433.886	8082.62
433.995	7937.62
434.104	8325.62
434.213	8266.62
434.322	8427.62
434.431	8656.62
434.54	8849.62
434.649	9135.62
434.757	8971.62
434.866	8872.62
434.975	8773.62
435.084	8557.62
435.193	8369.62
435.301	8364.62
435.41	8345.62
435.519	8284.62
435.628	7677.62
435.737	7594.62
435.845	7457.62
435.954	7249.62
436.063	7423.62
436.171	7469.62
436.28	7353.62
436.389	7625.62
436.498	7375.62
436.606	7350.62
436.715	7574.62
436.823	7230.62
436.932	6925.62
437.041	7079.62
437.149	7091.62
437.258	6792.62
437.367	6817.62
437.475	6823.62
437.584	7203.62
437.692	6769.62
437.801	8442.62
437.91	6838.62
438.018	6648.62
438.127	6725.62
438.235	6687.62
438.344	6663.62
438.452	6663.62
438.561	6580.62
438.669	6660.62
438.778	6533.62
438.886	6622.62
438.995	6464.62
439.103	6591.62
439.212	6601.62
439.32	6754.62
439.428	6607.62
439.537	6689.62
439.645	6933.62
439.754	6769.62
439.862	6660.62
439.97	6810.62
440.079	6802.62
440.187	6653.62
440.295	7011.62
440.404	6848.62
440.512	6877.62
440.62	7124.62
440.729	7214.62
440.837	7252.62
440.945	8085.62
441.054	7499.62
441.162	7469.62
441.27	7896.62
441.378	7992.62
441.487	7878.62
441.595	8382.62
441.703	7987.62
441.811	7798.62
441.92	7670.62
442.028	7422.62
442.136	7591.62
442.244	7518.62
442.352	7453.62
442.461	7319.62
442.569	7394.62
442.677	7378.62
442.785	7521.62
442.893	7358.62
443.001	7314.62
443.109	7375.62
443.217	7421.62
443.325	7302.62
443.434	8084.62
443.542	7876.62
443.65	7600.62
443.758	7856.62
443.866	7917.62
443.974	8343.62
444.082	8351.62
444.19	8614.62
444.298	8768.62
444.406	8979.62
444.514	9278.62
444.622	9303.62
444.73	9186.62
444.838	9018.62
444.946	8756.62
445.054	8389.62
445.161	8156.62
445.269	7977.62
445.377	7886.62
445.485	7690.62
445.593	7769.62
445.701	7829.62
445.809	7548.62
445.917	7493.62
446.025	7420.62
446.132	7520.62
446.24	7480.62
446.348	7421.62
446.456	7193.62
446.564	7384.62
446.671	7354.62
446.779	7116.62
446.887	7184.62
446.995	7233.62
447.102	7226.62
447.21	7109.62
447.318	7062.62
447.426	6951.62
447.533	7387.62
447.641	8614.62
447.749	7231.62
447.856	6992.62
447.964	7153.62
448.072	7357.62
448.179	6977.62
448.287	7070.62
448.395	7160.62
448.502	6972.62
448.61	7051.62
448.718	7140.62
448.825	7140.62
448.933	6984.62
449.04	7167.62
449.148	7314.62
449.256	7124.62
449.363	7269.62
449.471	7391.62
449.578	7359.62
449.686	7351.62
449.793	7496.62
449.901	7351.62
450.008	7513.62
450.116	7605.62
450.223	7621.62
450.331	7710.62
450.438	7887.62
450.546	8049.62
450.653	8102.62
450.76	8121.62
450.868	8127.62
450.975	8307.62
451.083	8077.62
451.19	8241.62
451.297	8101.62
451.405	8192.62
451.512	8296.62
451.619	8525.62
451.727	8454.62
451.834	8304.62
451.941	8405.62
452.049	8310.62
452.156	8237.62
452.263	8593.62
452.371	8479.62
452.478	8595.62
452.585	8814.62
452.692	8515.62
452.8	8768.62
452.907	8828.62
453.014	8690.62
453.121	8706.62
453.229	8828.62
453.336	8915.62
453.443	8881.62
453.55	8838.62
453.657	8898.62
453.765	9053.62
453.872	8965.62
453.979	9111.62
454.086	9143.62
454.193	9004.62
454.3	8983.62
454.407	9257.62
454.514	9287.62
454.621	9119.62
454.729	9157.62
454.836	9184.62
454.943	9273.62
455.05	9293.62
455.157	9485.62
455.264	9312.62
455.371	9522.62
455.478	9512.62
455.585	11162.62
455.692	9687.62
455.799	9650.62
455.906	9547.62
456.013	9611.62
456.12	9832.62
456.227	9780.62
456.334	9884.62
456.44	9945.62
456.547	9980.62
456.654	9826.62
456.761	10203.62
456.868	10205.62
456.975	10220.62
457.082	10138.62
457.189	10078.62
457.296	10123.62
457.402	10209.62
457.509	10262.62
457.616	10407.62
457.723	10781.62
457.83	10661.62
457.936	10753.62
458.043	11295.62
458.15	11040.62
458.257	11207.62
458.363	11305.62
458.47	11812.62
458.577	11891.62
458.684	11980.62
458.79	12376.62
458.897	12575.62
459.004	13037.62
459.11	12880.62
459.217	13006.62
459.324	13198.62
459.43	13456.62
459.537	13822.62
459.644	13841.62
459.75	14075.62
459.857	14586.62
459.964	14542.62
460.07	14586.62
460.177	14586.62
460.283	14586.62
460.39	14586.62
460.496	14586.62
460.603	14586.62
460.71	14586.62
460.816	14586.62
460.923	14586.62
461.029	14586.62
461.136	14586.62
461.242	14586.62
461.349	14586.62
461.455	14586.62
461.562	14586.62
461.668	14586.62
461.774	14586.62
461.881	14586.62
461.987	14586.62
462.094	14586.62
462.2	14586.62
462.307	14586.62
462.413	14586.62
462.519	14586.62
462.626	14586.62
462.732	14586.62
462.838	14586.62
462.945	14586.62
463.051	14586.62
463.157	14586.62
463.264	14586.62
463.37	14586.62
463.476	14586.62
463.583	14586.62
463.689	14586.62
463.795	14586.62
463.901	14586.62
464.008	14586.62
464.114	14586.62
464.22	14586.62
464.326	14586.62
464.433	14586.62
464.539	14586.62
464.645	14586.62
464.751	14586.62
464.857	14586.62
464.963	14494.62
465.07	14262.62
465.176	13617.62
465.282	13125.62
465.388	13100.62
465.494	12636.62
465.6	12172.62
465.706	11983.62
465.812	11903.62
465.918	12002.62
466.024	11709.62
466.131	11408.62
466.237	11156.62
466.343	11003.62
466.449	10792.62
466.555	10746.62
466.661	10406.62
466.767	10428.62
466.873	10454.62
466.979	10600.62
467.085	10363.62
467.191	10466.62
467.296	10194.62
467.402	10350.62
467.508	10170.62
467.614	10419.62
467.72	9784.62
467.826	9818.62
467.932	9650.62
468.038	9460.62
468.144	9391.62
468.25	9440.62
468.355	9442.62
468.461	9423.62
468.567	9341.62
468.673	9325.62
468.779	9225.62
468.885	9304.62
468.99	9323.62
469.096	9295.62
469.202	9437.62
469.308	9439.62
469.413	9576.62
469.519	9590.62
469.625	9814.62
469.731	9777.62
469.836	9784.62
469.942	9940.62
470.048	9835.62
470.153	9932.62
470.259	9697.62
470.365	9955.62
470.47	9848.62
470.576	9727.62
470.682	9644.62
470.787	9417.62
470.893	9333.62
470.999	9287.62
471.104	9016.62
471.21	8873.62
471.315	8787.62
471.421	8628.62
471.527	8862.62
471.632	8682.62
471.738	8487.62
471.843	8349.62
471.949	8404.62
472.054	8332.62
472.16	8189.62
472.265	8187.62
472.371	8057.62
472.476	8068.62
472.582	8119.62
472.687	7943.62
472.793	7912.62
472.898	7969.62
473.003	7857.62
473.109	7767.62
473.214	7649.62
473.32	7800.62
473.425	7752.62
473.53	7719.62
473.636	7557.62
473.741	7711.62
473.847	7593.62
473.952	7626.62
474.057	7841.62
474.163	7646.62
474.268	7614.62
474.373	7672.62
474.478	7479.62
474.584	7542.62
474.689	7640.62
474.794	7782.62
474.9	8088.62
475.005	7615.62
475.11	7934.62
475.215	7663.62
475.321	7692.62
475.426	7936.62
475.531	7855.62
475.636	7798.62
475.741	7641.62
475.846	7950.62
475.952	8104.62
476.057	7939.62
476.162	8040.62
476.267	8091.62
476.372	8269.62
476.477	8013.62
476.582	8165.62
476.687	8054.62
476.793	8173.62
476.898	8160.62
477.003	8313.62
477.108	8318.62
477.213	8376.62
477.318	8381.62
477.423	8587.62
477.528	8832.62
477.633	8937.62
477.738	9084.62
477.843	9054.62
477.948	9124.62
478.053	9289.62
478.158	9306.62
478.263	9415.62
478.368	9318.62
478.473	9614.62
478.578	9604.62
478.682	9655.62
478.787	9816.62
478.892	9791.62
478.997	9876.62
479.102	9860.62
479.207	9794.62
479.312	9989.62
479.417	9811.62
479.521	9906.62
479.626	10130.62
479.731	10040.62
479.836	10146.62
479.941	10628.62
480.045	10649.62
480.15	10730.62
480.255	10787.62
480.36	10913.62
480.465	10793.62
480.569	10856.62
480.674	10405.62
480.779	10355.62
480.883	10495.62
480.988	10384.62
481.093	10177.62
481.197	10017.62
481.302	10115.62
481.407	10111.62
481.511	12279.62
481.616	10130.62
481.721	10009.62
481.825	10232.62
481.93	9943.62
482.035	9946.62
482.139	10005.62
482.244	10189.62
482.348	10159.62
482.453	10163.62
482.557	10323.62
482.662	10236.62
482.767	10337.62
482.871	10432.62
482.976	10514.62
483.08	10504.62
483.185	10758.62
483.289	10693.62
483.394	10772.62
483.498	10943.62
483.603	10905.62
483.707	11091.62
483.811	11119.62
483.916	11363.62
484.02	11266.62
484.125	11492.62
484.229	11379.62
484.333	11768.62
484.438	11566.62
484.542	11792.62
484.647	12041.62
484.751	12183.62
484.855	12074.62
484.96	12192.62
485.064	12359.62
485.168	12471.62
485.273	12446.62
485.377	12551.62
485.481	12912.62
485.585	12541.62
485.69	12770.62
485.794	12835.62
485.898	12917.62
486.002	12940.62
486.107	12976.62
486.211	12848.62
486.315	12953.62
486.419	12989.62
486.524	12968.62
486.628	12894.62
486.732	12984.62
486.836	12863.62
486.94	12981.62
487.044	12930.62
487.148	13007.62
487.253	12920.62
487.357	13144.62
487.461	13185.62
487.565	12917.62
487.669	12878.62
487.773	12792.62
487.877	13166.62
487.981	13070.62
488.085	13106.62
488.189	12844.62
488.293	12980.62
488.397	13578.62
488.501	12994.62
488.605	12850.62
488.709	12848.62
488.813	12932.62
488.917	12867.62
489.021	13013.62
489.125	13264.62
489.229	12874.62
489.333	13125.62
489.437	13088.62
489.541	13117.62
489.645	12989.62
489.749	13228.62
489.853	13175.62
489.956	13224.62
490.06	13240.62
490.164	13126.62
490.268	12924.62
490.372	13070.62
490.476	12978.62
490.579	13019.62
490.683	13763.62
490.787	13191.62
490.891	12956.62
490.995	13150.62
491.098	13012.62
491.202	13038.62
491.306	13180.62
491.41	13012.62
491.513	12928.62
491.617	13021.62
491.721	13342.62
491.824	13185.62
491.928	13077.62
492.032	13324.62
492.136	12915.62
492.239	12995.62
492.343	13184.62
492.446	13736.62
492.55	13165.62
492.654	13150.62
492.757	12995.62
492.861	13164.62
492.965	13117.62
493.068	13153.62
493.172	13077.62
493.275	13055.62
493.379	13112.62
493.482	13241.62
493.586	13223.62
493.689	13521.62
493.793	13286.62
493.896	13441.62
494	13380.62
494.103	13457.62
494.207	13694.62
494.31	13733.62
494.414	13229.62
494.517	13136.62
494.621	12947.62
494.724	13052.62
494.828	13156.62
494.931	12912.62
495.034	12959.62
495.138	13320.62
495.241	12812.62
495.345	14053.62
495.448	13310.62
495.551	12886.62
495.655	12880.62
495.758	12972.62
495.861	13039.62
495.965	12992.62
496.068	12963.62
496.171	13089.62
496.274	13104.62
496.378	13158.62
496.481	13315.62
496.584	13205.62
496.687	13393.62
496.791	13396.62
496.894	13507.62
496.997	13512.62
497.1	13742.62
497.204	13828.62
497.307	13847.62
497.41	14208.62
497.513	14538.62
497.616	14364.62
497.719	14586.62
497.823	14586.62
497.926	14586.62
498.029	14586.62
498.132	14586.62
498.235	14586.62
498.338	14586.62
498.441	14586.62
498.544	14586.62
498.647	14586.62
498.75	14586.62
498.853	14586.62
498.956	14586.62
499.059	14586.62
499.163	14586.62
499.266	14586.62
499.369	14586.62
499.471	14586.62
499.574	14586.62
499.677	14586.62
499.78	14586.62
499.883	14586.62
499.986	14586.62
500.089	14586.62
500.192	14586.62
500.295	14586.62
500.398	14586.62
500.501	14586.62
500.604	14586.62
500.707	14586.62
500.809	14586.62
500.912	14586.62
501.015	14586.62
501.118	14586.62
501.221	14586.62
501.324	14586.62
501.426	14586.62
501.529	14586.62
501.632	14586.62
501.735	14586.62
501.837	14586.62
501.94	14586.62
502.043	14586.62
502.146	14586.62
502.248	14586.62
502.351	14586.62
502.454	14586.62
502.557	14526.62
502.659	14200.62
502.762	13901.62
502.865	13601.62
502.967	13138.62
503.07	12974.62
503.173	13030.62
503.275	12720.62
503.378	12549.62
503.48	12445.62
503.583	12298.62
503.686	12256.62
503.788	12606.62
503.891	12112.62
503.993	12499.62
504.096	12329.62
504.198	12606.62
504.301	12509.62
504.403	12580.62
504.506	12305.62
504.608	12068.62
504.711	11753.62
504.813	11452.62
504.916	11012.62
505.018	10801.62
505.121	10538.62
505.223	10516.62
505.326	10225.62
505.428	10085.62
505.531	9967.62
505.633	9877.62
505.735	9617.62
505.838	9561.62
505.94	9492.62
506.042	9429.62
506.145	9343.62
506.247	9402.62
506.35	9234.62
506.452	9278.62
506.554	9311.62
506.656	9184.62
506.759	8940.62
506.861	9081.62
506.963	9028.62
507.066	9011.62
507.168	9085.62
507.27	8868.62
507.372	8693.62
507.475	8867.62
507.577	8830.62
507.679	8649.62
507.781	8608.62
507.883	8593.62
507.986	8501.62
508.088	8429.62
508.19	8548.62
508.292	8461.62
508.394	8300.62
508.496	8279.62
508.598	8274.62
508.701	8259.62
508.803	8322.62
508.905	8277.62
509.007	8356.62
509.109	8306.62
509.211	8312.62
509.313	8238.62
509.415	8127.62
509.517	8290.62
509.619	8060.62
509.721	8171.62
509.823	8144.62
509.925	8303.62
510.027	8147.62
510.129	8080.62
510.231	8094.62
510.333	7956.62
510.435	7937.62
510.537	8171.62
510.639	8182.62
510.741	8020.62
510.843	8102.62
510.945	7978.62
511.047	7997.62
511.148	8108.62
511.25	8104.62
511.352	8110.62
511.454	7973.62
511.556	8217.62
511.658	8004.62
511.76	8209.62
511.861	8288.62
511.963	7952.62
512.065	8002.62
512.167	8016.62
512.268	8234.62
512.37	8109.62
512.472	8222.62
512.574	8097.62
512.676	8228.62
512.777	8008.62
512.879	8154.62
512.981	8133.62
513.082	8232.62
513.184	8225.62
513.286	8739.62
513.387	8341.62
513.489	8345.62
513.591	8252.62
513.692	8351.62
513.794	8511.62
513.896	8206.62
513.997	8305.62
514.099	8326.62
514.2	8664.62
514.302	8496.62
514.404	8517.62
514.505	8497.62
514.607	8585.62
514.708	8729.62
514.81	8849.62
514.911	8802.62
515.013	8997.62
515.114	8983.62
515.216	8869.62
515.317	9066.62
515.419	9060.62
515.52	9254.62
515.622	9284.62
515.723	9469.62
515.825	9725.62
515.926	9692.62
516.027	9608.62
516.129	9818.62
516.23	9978.62
516.332	10356.62
516.433	10482.62
516.534	10768.62
516.636	10725.62
516.737	10902.62
516.838	12462.62
516.94	11668.62
517.041	11865.62
517.142	12334.62
517.244	12330.62
517.345	12501.62
517.446	12705.62
517.547	12729.62
517.649	12820.62
517.75	12797.62
517.851	12661.62
517.952	12664.62
518.054	12273.62
518.155	12450.62
518.256	11861.62
518.357	11856.62
518.458	11457.62
518.56	11281.62
518.661	11136.62
518.762	11005.62
518.863	10972.62
518.964	10884.62
519.065	10566.62
519.166	10437.62
519.268	10198.62
519.369	10572.62
519.47	10254.62
519.571	10002.62
519.672	9848.62
519.773	10032.62
519.874	9942.62
519.975	9958.62
520.076	9785.62
520.177	9871.62
520.278	9657.62
520.379	9787.62
520.48	9564.62
520.581	9551.62
520.682	9705.62
520.783	9649.62
520.884	9687.62
520.985	9651.62
521.086	9468.62
521.187	9584.62
521.288	9300.62
521.389	9476.62
521.489	9340.62
521.59	9294.62
521.691	9349.62
521.792	9447.62
521.893	9494.62
521.994	9374.62
522.095	9354.62
522.195	9508.62
522.296	9425.62
522.397	9508.62
522.498	9335.62
522.599	9143.62
522.699	9364.62
522.8	9256.62
522.901	9316.62
523.002	9405.62
523.102	9613.62
523.203	9282.62
523.304	9617.62
523.405	9458.62
523.505	9353.62
523.606	9474.62
523.707	9413.62
523.807	9365.62
523.908	9336.62
524.009	9528.62
524.109	9448.62
524.21	9183.62
524.31	9392.62
524.411	9568.62
524.512	9583.62
524.612	9485.62
524.713	9660.62
524.813	9447.62
524.914	9622.62
525.014	14586.62
525.115	9703.62
525.216	9310.62
525.316	9540.62
525.417	9485.62
525.517	9361.62
525.618	9431.62
525.718	9461.62
525.819	9266.62
525.919	9484.62
526.019	9451.62
526.12	9444.62
526.22	9374.62
526.321	9439.62
526.421	9437.62
526.522	9433.62
526.622	9383.62
526.722	9383.62
526.823	9589.62
526.923	9509.62
527.023	9625.62
527.124	9646.62
527.224	9545.62
527.324	9517.62
527.425	9537.62
527.525	9381.62
527.625	9558.62
527.726	9391.62
527.826	9607.62
527.926	9463.62
528.026	9491.62
528.127	9477.62
528.227	9466.62
528.327	9574.62
528.427	9460.62
528.528	9551.62
528.628	9515.62
528.728	9500.62
528.828	9536.62
528.928	9723.62
529.029	9448.62
529.129	9482.62
529.229	9577.62
529.329	9463.62
529.429	9462.62
529.529	9591.62
529.629	9577.62
529.729	9344.62
529.829	9524.62
529.93	9375.62
530.03	9489.62
530.13	9376.62
530.23	9407.62
530.33	9363.62
530.43	9360.62
530.53	9510.62
530.63	9437.62
530.73	9186.62
530.83	9291.62
530.93	9396.62
531.03	9301.62
531.13	9506.62
531.23	9301.62
531.33	9372.62
531.429	9426.62
531.529	9600.62
531.629	9277.62
531.729	9260.62
531.829	9254.62
531.929	9197.62
532.029	9204.62
532.129	9177.62
532.229	9259.62
532.328	9205.62
532.428	9205.62
532.528	9160.62
532.628	8948.62
532.728	9109.62
532.827	8937.62
532.927	9126.62
533.027	8932.62
533.127	9191.62
533.227	9010.62
533.326	8904.62
533.426	8796.62
533.526	9120.62
533.625	9049.62
533.725	9132.62
533.825	9074.62
533.924	8655.62
534.024	8710.62
534.124	8725.62
534.223	8770.62
534.323	9139.62
534.423	8707.62
534.522	8622.62
534.622	8504.62
534.722	8477.62
534.821	8615.62
534.921	8524.62
535.02	8452.62
535.12	8596.62
535.219	8444.62
535.319	8444.62
535.419	8447.62
535.518	8192.62
535.618	8318.62
535.717	8369.62
535.817	8184.62
535.916	7893.62
536.016	8062.62
536.115	8095.62
536.215	7992.62
536.314	7905.62
536.413	7895.62
536.513	7898.62
536.612	7861.62
536.712	7787.62
536.811	7932.62
536.91	7673.62
537.01	7682.62
537.109	7718.62
537.209	7741.62
537.308	7582.62
537.407	7657.62
537.507	7697.62
537.606	7608.62
537.705	7752.62
537.805	7587.62
537.904	7583.62
538.003	7610.62
538.102	7614.62
538.202	7452.62
538.301	7607.62
538.4	7554.62
538.499	7362.62
538.599	7434.62
538.698	7564.62
538.797	7298.62
538.896	7460.62
538.995	7466.62
539.095	7272.62
539.194	7494.62
539.293	7286.62
539.392	7237.62
539.491	7224.62
539.59	7200.62
539.689	7433.62
539.789	7220.62
539.888	6972.62
539.987	7078.62
540.086	7081.62
540.185	7065.62
540.284	7193.62
540.383	7137.62
540.482	7031.62
540.581	7015.62
540.68	7008.62
540.779	7118.62
540.878	7039.62
540.977	7092.62
541.076	6866.62
541.175	6931.62
541.274	7123.62
541.373	6915.62
541.472	6828.62
541.571	6854.62
541.67	8286.62
541.769	6984.62
541.868	6764.62
541.966	6847.62
542.065	6805.62
542.164	6825.62
542.263	6702.62
542.362	6769.62
542.461	6869.62
542.56	6754.62
542.658	6765.62
542.757	6541.62
542.856	6630.62
542.955	6614.62
543.054	6485.62
543.152	6864.62
543.251	6644.62
543.35	6677.62
543.449	6669.62
543.547	6699.62
543.646	6650.62
543.745	6676.62
543.843	6719.62
543.942	6684.62
544.041	6628.62
544.14	6773.62
544.238	6682.62
544.337	6892.62
544.436	6837.62
544.534	6900.62
544.633	6728.62
544.731	6755.62
544.83	6826.62
544.929	6865.62
545.027	6807.62
545.126	6745.62
545.224	6907.62
545.323	6766.62
545.421	6982.62
545.52	6829.62
545.619	6770.62
545.717	6719.62
545.816	6866.62
545.914	6624.62
546.013	7064.62
546.111	6963.62
546.209	6727.62
546.308	6658.62
546.406	6695.62
546.505	6871.62
546.603	6668.62
546.702	6609.62
546.8	6579.62
546.899	6608.62
546.997	6740.62
547.095	6764.62
547.194	6761.62
547.292	6682.62
547.39	6746.62
547.489	6693.62
547.587	7074.62
547.685	6772.62
547.784	7041.62
547.882	6782.62
547.98	6769.62
548.079	6842.62
548.177	6653.62
548.275	6671.62
548.373	6908.62
548.472	6694.62
548.57	6725.62
548.668	6913.62
548.766	6699.62
548.864	6932.62
548.963	6862.62
549.061	7039.62
549.159	6790.62
549.257	6968.62
549.355	6861.62
549.454	6809.62
549.552	7090.62
549.65	6902.62
549.748	6799.62
549.846	6822.62
549.944	6837.62
550.042	6654.62
550.14	6705.62
550.238	6664.62
550.336	6594.62
550.434	6534.62
550.532	6716.62
550.631	6738.62
550.729	6619.62
550.827	6818.62
550.925	6644.62
551.023	6653.62
551.121	6538.62
551.218	6488.62
551.316	6540.62
551.414	6685.62
551.512	6658.62
551.61	6894.62
551.708	6738.62
551.806	6838.62
551.904	6718.62
552.002	6798.62
552.1	6900.62
552.198	6952.62
552.296	7277.62
552.393	7245.62
552.491	7440.62
552.589	7490.62
552.687	7452.62
552.785	7636.62
552.882	7599.62
552.98	7893.62
553.078	7810.62
553.176	7826.62
553.274	7575.62
553.371	7626.62
553.469	7722.62
553.567	7492.62
553.665	7440.62
553.762	7870.62
553.86	7349.62
553.958	7234.62
554.055	7210.62
554.153	7183.62
554.251	7026.62
554.348	6976.62
554.446	6794.62
554.544	6732.62
554.641	7209.62
554.739	6729.62
554.837	6841.62
554.934	6747.62
555.032	6690.62
555.129	6527.62
555.227	6839.62
555.324	10310.62
555.422	6736.62
555.519	6372.62
555.617	6365.62
555.715	6311.62
555.812	8381.62
555.91	6293.62
556.007	6433.62
556.105	6265.62
556.202	6202.62
556.299	6188.62
556.397	6200.62
556.494	6128.62
556.592	6249.62
556.689	6291.62
556.787	6120.62
556.884	6078.62
556.981	6156.62
557.079	6005.62
557.176	6184.62
557.273	6125.62
557.371	6234.62
557.468	6230.62
557.566	6173.62
557.663	6029.62
557.76	6055.62
557.857	6007.62
557.955	6041.62
558.052	6105.62
558.149	6233.62
558.247	6320.62
558.344	5994.62
558.441	5999.62
558.538	6132.62
558.636	6045.62
558.733	6178.62
558.83	6241.62
558.927	6082.62
559.024	6102.62
559.122	6173.62
559.219	6119.62
559.316	6199.62
559.413	6298.62
559.51	6150.62
559.607	6091.62
559.704	6120.62
559.801	6373.62
559.899	6055.62
559.996	6530.62
560.093	6278.62
560.19	6174.62
560.287	6224.62
560.384	6440.62
560.481	6283.62
560.578	6231.62
560.675	6241.62
560.772	6348.62
560.869	6272.62
560.966	6548.62
561.063	6328.62
561.16	6424.62
561.257	6306.62
561.354	6365.62
561.451	6285.62
561.548	6327.62
561.645	6594.62
561.742	6450.62
561.838	6295.62
561.935	6440.62
562.032	6487.62
562.129	6340.62
562.226	6404.62
562.323	6488.62
562.42	6564.62
562.516	6534.62
562.613	6446.62
562.71	6547.62
562.807	7452.62
562.904	6605.62
563	6692.62
563.097	6669.62
563.194	6701.62
563.291	6713.62
563.387	6747.62
563.484	6791.62
563.581	6823.62
563.678	6850.62
563.774	7382.62
563.871	6982.62
563.968	6950.62
564.064	7052.62
564.161	7124.62
564.258	7141.62
564.354	7367.62
564.451	7418.62
564.548	7481.62
564.644	7375.62
564.741	7489.62
564.837	7648.62
564.934	7606.62
565.031	7728.62
565.127	7882.62
565.224	8234.62
565.32	8446.62
565.417	8396.62
565.513	8641.62
565.61	8710.62
565.706	9016.62
565.803	9205.62
565.899	9331.62
565.996	9680.62
566.092	10029.62
566.189	10204.62
566.285	10770.62
566.382	11228.62
566.478	11548.62
566.574	11826.62
566.671	11735.62
566.767	11886.62
566.864	11657.62
566.96	11937.62
567.056	12084.62
567.153	12548.62
567.249	12715.62
567.345	13093.62
567.442	13443.62
567.538	13707.62
567.634	13974.62
567.731	14141.62
567.827	14107.62
567.923	13830.62
568.019	13149.62
568.116	12621.62
568.212	12230.62
568.308	11830.62
568.404	11090.62
568.501	10841.62
568.597	10626.62
568.693	10342.62
568.789	10730.62
568.885	9667.62
568.982	9296.62
569.078	8815.62
569.174	8799.62
569.27	8453.62
569.366	8300.62
569.462	8080.62
569.558	8049.62
569.655	8024.62
569.751	7777.62
569.847	7802.62
569.943	7687.62
570.039	7518.62
570.135	8282.62
570.231	7510.62
570.327	7563.62
570.423	7643.62
570.519	7599.62
570.615	7477.62
570.711	7572.62
570.807	7795.62
570.903	7573.62
570.999	7473.62
571.095	7557.62
571.191	7248.62
571.287	7191.62
571.383	7216.62
571.479	7024.62
571.574	6886.62
571.67	6774.62
571.766	6950.62
571.862	6520.62
571.958	6582.62
572.054	6630.62
572.15	6294.62
572.246	6297.62
572.341	6451.62
572.437	6254.62
572.533	6316.62
572.629	6252.62
572.725	6144.62
572.82	6215.62
572.916	6220.62
573.012	6113.62
573.108	6182.62
573.203	6054.62
573.299	6003.62
573.395	5951.62
573.49	5874.62
573.586	5902.62
573.682	5929.62
573.778	6044.62
573.873	5824.62
573.969	5779.62
574.065	5801.62
574.16	5894.62
574.256	5694.62
574.351	5838.62
574.447	5769.62
574.543	5848.62
574.638	5847.62
574.734	5807.62
574.829	6069.62
574.925	5731.62
575.02	5660.62
575.116	5625.62
575.212	5502.62
575.307	5689.62
575.403	5452.62
575.498	5512.62
575.594	5445.62
575.689	5506.62
575.784	5487.62
575.88	5408.62
575.975	5492.62
576.071	5376.62
576.166	5162.62
576.262	5250.62
576.357	5224.62
576.452	5478.62
576.548	5310.62
576.643	5263.62
576.739	5291.62
576.834	5107.62
576.929	5175.62
577.025	5991.62
577.12	5125.62
577.215	5054.62
577.311	5180.62
577.406	5095.62
577.501	5182.62
577.597	4905.62
577.692	5070.62
577.787	5034.62
577.882	4971.62
577.978	4928.62
578.073	4810.62
578.168	4815.62
578.263	4897.62
578.358	4749.62
578.454	4702.62
578.549	4781.62
578.644	4714.62
578.739	4757.62
578.834	4658.62
578.929	4637.62
579.025	4649.62
579.12	4766.62
579.215	4932.62
579.31	4872.62
579.405	4630.62
579.5	4697.62
579.595	4609.62
579.69	4483.62
579.785	4596.62
579.88	4493.62
579.975	4564.62
580.07	4439.62
580.165	4437.62
580.26	4592.62
580.355	4446.62
580.45	4396.62
580.545	4335.62
580.64	4293.62
580.735	4496.62
580.83	4307.62
580.925	4277.62
581.02	4300.62
581.115	4229.62
581.21	4097.62
581.305	4364.62
581.4	4313.62
581.495	4233.62
581.589	4281.62
581.684	4149.62
581.779	4224.62
581.874	4169.62
581.969	4211.62
582.064	4096.62
582.158	4157.62
582.253	4121.62
582.348	4062.62
582.443	4084.62
582.537	4124.62
582.632	4365.62
582.727	4068.62
582.822	3981.62
582.916	4015.62
583.011	4067.62
583.106	4008.62
583.201	3947.62
583.295	4025.62
583.39	3863.62
583.485	3901.62
583.579	5773.62
583.674	4111.62
583.769	4223.62
583.863	3930.62
583.958	3877.62
584.052	3805.62
584.147	3830.62
584.242	3788.62
584.336	3888.62
584.431	4105.62
584.525	3724.62
584.62	4031.62
584.714	3992.62
584.809	3895.62
584.903	3906.62
584.998	3924.62
585.092	3751.62
585.187	3868.62
585.281	3819.62
585.376	3865.62
585.47	3839.62
585.565	3765.62
585.659	3678.62
585.754	3767.62
585.848	3788.62
585.942	3733.62
586.037	3597.62
586.131	5240.62
586.226	3821.62
586.32	3846.62
586.414	3616.62
586.509	3854.62
586.603	3896.62
586.697	3710.62
586.792	3665.62
586.886	3715.62
586.98	3796.62
587.075	3698.62
587.169	3654.62
587.263	3901.62
587.357	3714.62
587.452	3682.62
587.546	3834.62
587.64	3794.62
587.734	3780.62
587.829	3882.62
587.923	3839.62
588.017	3863.62
588.111	3976.62
588.205	4077.62
588.3	4121.62
588.394	4273.62
588.488	4485.62
588.582	4947.62
588.676	6059.62
588.77	11133.62
588.864	14586.62
588.958	14586.62
589.052	14586.62
589.147	9893.62
589.241	7369.62
589.335	7773.62
589.429	14586.62
589.523	14586.62
589.617	14511.62
589.711	8989.62
589.805	6031.62
589.899	5056.62
589.993	4400.62
590.087	4052.62
590.181	4013.62
590.275	3959.62
590.369	3810.62
590.462	3687.62
590.556	3743.62
590.65	3649.62
590.744	3662.62
590.838	3692.62
590.932	3639.62
591.026	3709.62
591.12	3916.62
591.214	3757.62
591.307	3698.62
591.401	3704.62
591.495	3826.62
591.589	3564.62
591.683	3742.62
591.777	3844.62
591.87	4138.62
591.964	3836.62
592.058	3844.62
592.152	3934.62
592.245	3876.62
592.339	4080.62
592.433	4167.62
592.527	4100.62
592.62	4063.62
592.714	4174.62
592.808	4206.62
592.901	4304.62
592.995	4296.62
593.089	4476.62
593.182	4326.62
593.276	4337.62
593.37	4242.62
593.463	4156.62
593.557	4261.62
593.65	4286.62
593.744	4268.62
593.837	4419.62
593.931	4354.62
594.025	7785.62
594.118	4544.62
594.212	4342.62
594.305	4101.62
594.399	4110.62
594.492	4522.62
594.586	3878.62
594.679	3884.62
594.773	3789.62
594.866	3795.62
594.96	3645.62
595.053	3624.62
595.146	3664.62
595.24	3532.62
595.333	3401.62
595.427	3468.62
595.52	3337.62
595.614	3480.62
595.707	3356.62
595.8	3233.62
595.894	3185.62
595.987	3189.62
596.08	3090.62
596.174	3425.62
596.267	3216.62
596.36	3207.62
596.454	3228.62
596.547	3111.62
596.64	3003.62
596.733	2918.62
596.827	3079.62
596.92	2953.62
597.013	2874.62
597.106	2812.62
597.2	2846.62
597.293	2813.62
597.386	3088.62
597.479	2879.62
597.572	2917.62
597.666	2766.62
597.759	2846.62
597.852	2944.62
597.945	2711.62
598.038	2695.62
598.131	2798.62
598.224	2694.62
598.317	2864.62
598.411	2715.62
598.504	2728.62
598.597	2719.62
598.69	2692.62
598.783	2771.62
598.876	2753.62
598.969	2709.62
599.062	2673.62
599.155	2791.62
599.248	2679.62
599.341	2717.62
599.434	2728.62
599.527	2655.62
599.62	2633.62
599.713	2612.62
599.806	2792.62
599.899	2872.62
599.991	2653.62
600.084	2927.62
600.177	2589.62
600.27	2694.62
600.363	2803.62
600.456	2577.62
600.549	2704.62
600.642	2504.62
600.734	2548.62
600.827	2566.62
600.92	2755.62
601.013	2594.62
601.106	2686.62
601.199	2584.62
601.291	2492.62
601.384	2566.62
601.477	2809.62
601.57	2590.62
601.662	2525.62
601.755	2586.62
601.848	2543.62
601.94	2494.62
602.033	2660.62
602.126	2547.62
602.219	2416.62
602.311	2661.62
602.404	2455.62
602.497	2436.62
602.589	2416.62
602.682	2539.62
602.774	2473.62
602.867	2453.62
602.96	2477.62
603.052	2451.62
603.145	2413.62
603.237	2458.62
603.33	2446.62
603.422	2531.62
603.515	2376.62
603.608	2500.62
603.7	2418.62
603.793	2376.62
603.885	2477.62
603.978	2413.62
604.07	2430.62
604.163	2390.62
604.255	2467.62
604.347	2365.62
604.44	2364.62
604.532	2497.62
604.625	2353.62
604.717	2346.62
604.81	2483.62
604.902	2337.62
604.994	2328.62
605.087	2357.62
605.179	2406.62
605.271	2414.62
605.364	2408.62
605.456	2439.62
605.548	2346.62
605.641	2329.62
605.733	2398.62
605.825	2371.62
605.918	2277.62
606.01	2516.62
606.102	2877.62
606.194	2353.62
606.287	2524.62
606.379	2268.62
606.471	2318.62
606.563	2405.62
606.655	2467.62
606.748	2380.62
606.84	2374.62
606.932	2457.62
607.024	2236.62
607.116	2216.62
607.208	2314.62
607.301	2314.62
607.393	2295.62
607.485	2415.62
607.577	2329.62
607.669	2356.62
607.761	2336.62
607.853	2669.62
607.945	2310.62
608.037	2228.62
608.129	2372.62
608.221	2215.62
608.313	2260.62
608.405	2416.62
608.497	2277.62
608.589	2175.62
608.681	2257.62
608.773	2318.62
608.865	2218.62
608.957	2300.62
609.049	2260.62
609.141	2359.62
609.233	2270.62
609.325	2241.62
609.417	2226.62
609.509	2343.62
609.601	2462.62
609.693	2352.62
609.784	2250.62
609.876	2302.62
609.968	2321.62
610.06	4627.62
610.152	2512.62
610.244	3208.62
610.335	2264.62
610.427	2190.62
610.519	2285.62
610.611	2259.62
610.702	2169.62
610.794	2321.62
610.886	2244.62
610.978	2127.62
611.069	2708.62
611.161	2145.62
611.253	2165.62
611.344	2047.62
611.436	1982.62
611.528	2036.62
611.62	1961.62
611.711	2005.62
611.803	1868.62
611.894	1863.62
611.986	1906.62
612.078	1875.62
612.169	1879.62
612.261	1846.62
612.352	1805.62
612.444	1686.62
612.536	1899.62
612.627	1730.62
612.719	1709.62
612.81	1630.62
612.902	1615.62
612.993	1620.62
613.085	1606.62
613.176	1579.62
613.268	1578.62
613.359	1476.62
613.451	1544.62
613.542	1496.62
613.634	1425.62
613.725	1479.62
613.816	1551.62
613.908	1335.62
613.999	1342.62
614.091	1248.62
614.182	1207.62
614.273	1250.62
614.365	1209.62
614.456	1125.62
614.547	1070.62
614.639	1096.62
614.73	1064.62
614.821	1101.62
614.913	1004.62
615.004	974.62
615.095	901.62
615.187	896.62
