Data from 42g_HRC06701__60__547.txt Node

Date: Thu Apr 18 02:43:03 CDT 2024
User: Estudiantes 2
Spectrometer: HR+C0670
Trigger mode: 4
Integration Time (sec): 1.000000E0
Scans to average: 1
Electric dark correction enabled: true
Nonlinearity correction enabled: false
Boxcar width: 0
XAxis mode: Wavelengths
Number of Pixels in Spectrum: 2048
>>>>>Begin Spectral Data<<<<<
407.81	-130.81
407.921	-130.81
408.032	-130.81
408.143	-149.81
408.254	-171.81
408.365	33.19
408.476	292.19
408.587	-44.81
408.699	-0.81
408.81	-0.81
408.921	-57.81
409.032	-46.81
409.143	117.19
409.254	30.19
409.365	75.19
409.476	3.19
409.587	-6.81
409.698	59.19
409.809	103.19
409.92	-35.81
410.031	-41.81
410.142	64.19
410.253	47.19
410.364	17.19
410.475	-49.81
410.585	96.19
410.696	42.19
410.807	21.19
410.918	49.19
411.029	70.19
411.14	24.19
411.251	22.19
411.362	123.19
411.472	63.19
411.583	43.19
411.694	108.19
411.805	1.19
411.916	1.19
412.026	158.19
412.137	8.19
412.248	55.19
412.359	15.19
412.47	-17.81
412.58	-21.81
412.691	86.19
412.802	99.19
412.912	2.19
413.023	58.19
413.134	87.19
413.245	110.19
413.355	33.19
413.466	42.19
413.577	40.19
413.687	143.19
413.798	-3.81
413.909	141.19
414.019	9.19
414.13	33.19
414.24	58.19
414.351	118.19
414.462	211.19
414.572	134.19
414.683	103.19
414.793	31.19
414.904	412.19
415.014	54.19
415.125	1.19
415.235	108.19
415.346	175.19
415.456	146.19
415.567	55.19
415.677	105.19
415.788	91.19
415.898	52.19
416.009	86.19
416.119	75.19
416.23	35.19
416.34	40.19
416.45	75.19
416.561	883.19
416.671	210.19
416.782	-49.81
416.892	-1.81
417.002	111.19
417.113	124.19
417.223	36.19
417.333	11.19
417.444	68.19
417.554	71.19
417.664	84.19
417.775	34.19
417.885	11.19
417.995	31.19
418.106	189.19
418.216	86.19
418.326	46.19
418.436	-7.81
418.547	36.19
418.657	-19.81
418.767	116.19
418.877	59.19
418.987	27.19
419.098	40.19
419.208	48.19
419.318	106.19
419.428	49.19
419.538	43.19
419.648	89.19
419.759	60.19
419.869	114.19
419.979	49.19
420.089	54.19
420.199	47.19
420.309	106.19
420.419	108.19
420.529	35.19
420.639	645.19
420.749	156.19
420.859	88.19
420.969	79.19
421.079	310.19
421.189	150.19
421.299	113.19
421.409	57.19
421.519	144.19
421.629	142.19
421.739	78.19
421.849	-13.81
421.959	-9.81
422.069	124.19
422.179	8.19
422.289	-9.81
422.399	55.19
422.509	170.19
422.619	2726.19
422.729	331.19
422.838	1.19
422.948	42.19
423.058	4.19
423.168	53.19
423.278	-0.81
423.388	22.19
423.498	111.19
423.607	75.19
423.717	343.19
423.827	365.19
423.937	77.19
424.046	132.19
424.156	107.19
424.266	76.19
424.376	247.19
424.485	222.19
424.595	83.19
424.705	0.19
424.815	25.19
424.924	477.19
425.034	171.19
425.144	-27.81
425.253	25.19
425.363	101.19
425.473	111.19
425.582	-4.81
425.692	50.19
425.801	13.19
425.911	195.19
426.021	114.19
426.13	173.19
426.24	292.19
426.349	190.19
426.459	67.19
426.568	19.19
426.678	208.19
426.787	77.19
426.897	10.19
427.006	43.19
427.116	169.19
427.225	48.19
427.335	140.19
427.444	76.19
427.554	115.19
427.663	57.19
427.773	60.19
427.882	96.19
427.992	3.19
428.101	11.19
428.21	40.19
428.32	29.19
428.429	-31.81
428.539	327.19
428.648	54.19
428.757	150.19
428.867	133.19
428.976	178.19
429.085	66.19
429.195	53.19
429.304	39.19
429.413	122.19
429.523	150.19
429.632	150.19
429.741	87.19
429.85	23.19
429.96	118.19
430.069	50.19
430.178	-6.81
430.287	358.19
430.397	81.19
430.506	28.19
430.615	29.19
430.724	82.19
430.833	75.19
430.943	33.19
431.052	114.19
431.161	-16.81
431.27	65.19
431.379	91.19
431.488	152.19
431.597	120.19
431.706	140.19
431.816	46.19
431.925	72.19
432.034	52.19
432.143	103.19
432.252	68.19
432.361	160.19
432.47	134.19
432.579	85.19
432.688	64.19
432.797	115.19
432.906	-4.81
433.015	98.19
433.124	508.19
433.233	122.19
433.342	123.19
433.451	103.19
433.56	81.19
433.669	32.19
433.778	72.19
433.886	142.19
433.995	85.19
434.104	176.19
434.213	121.19
434.322	0.19
434.431	134.19
434.54	84.19
434.649	212.19
434.757	72.19
434.866	36.19
434.975	118.19
435.084	174.19
435.193	142.19
435.301	392.19
435.41	468.19
435.519	569.19
435.628	170.19
435.737	46.19
435.845	28.19
435.954	63.19
436.063	67.19
436.171	46.19
436.28	112.19
436.389	202.19
436.498	79.19
436.606	84.19
436.715	287.19
436.823	33.19
436.932	65.19
437.041	88.19
437.149	103.19
437.258	38.19
437.367	58.19
437.475	47.19
437.584	322.19
437.692	59.19
437.801	1685.19
437.91	254.19
438.018	21.19
438.127	63.19
438.235	132.19
438.344	47.19
438.452	122.19
438.561	15.19
438.669	32.19
438.778	55.19
438.886	63.19
438.995	24.19
439.103	48.19
439.212	69.19
439.32	30.19
439.428	39.19
439.537	85.19
439.645	110.19
439.754	129.19
439.862	87.19
439.97	80.19
440.079	38.19
440.187	5.19
440.295	175.19
440.404	54.19
440.512	33.19
440.62	114.19
440.729	103.19
440.837	121.19
440.945	775.19
441.054	175.19
441.162	39.19
441.27	177.19
441.378	6.19
441.487	36.19
441.595	425.19
441.703	206.19
441.811	108.19
441.92	51.19
442.028	75.19
442.136	63.19
442.244	113.19
442.352	133.19
442.461	-4.81
442.569	12.19
442.677	79.19
442.785	65.19
442.893	35.19
443.001	32.19
443.109	70.19
443.217	1.19
443.325	1.19
443.434	647.19
443.542	294.19
443.65	73.19
443.758	219.19
443.866	30.19
443.974	321.19
444.082	144.19
444.19	41.19
444.298	38.19
444.406	131.19
444.514	93.19
444.622	115.19
444.73	111.19
444.838	110.19
444.946	121.19
445.054	66.19
445.161	98.19
445.269	5.19
445.377	94.19
445.485	109.19
445.593	84.19
445.701	262.19
445.809	149.19
445.917	95.19
446.025	21.19
446.132	184.19
446.24	184.19
446.348	62.19
446.456	-11.81
446.564	51.19
446.671	97.19
446.779	44.19
446.887	55.19
446.995	68.19
447.102	75.19
447.21	137.19
447.318	112.19
447.426	27.19
447.533	313.19
447.641	1345.19
447.749	212.19
447.856	49.19
447.964	132.19
448.072	161.19
448.179	35.19
448.287	153.19
448.395	108.19
448.502	21.19
448.61	105.19
448.718	98.19
448.825	115.19
448.933	83.19
449.04	70.19
449.148	42.19
449.256	62.19
449.363	110.19
449.471	103.19
449.578	126.19
449.686	27.19
449.793	185.19
449.901	80.19
450.008	114.19
450.116	147.19
450.223	53.19
450.331	96.19
450.438	143.19
450.546	108.19
450.653	182.19
450.76	145.19
450.868	93.19
450.975	252.19
451.083	88.19
451.19	156.19
451.297	96.19
451.405	150.19
451.512	131.19
451.619	230.19
451.727	245.19
451.834	103.19
451.941	87.19
452.049	80.19
452.156	130.19
452.263	119.19
452.371	69.19
452.478	121.19
452.585	266.19
452.692	50.19
452.8	116.19
452.907	297.19
453.014	148.19
453.121	60.19
453.229	190.19
453.336	162.19
453.443	213.19
453.55	107.19
453.657	148.19
453.765	142.19
453.872	110.19
453.979	185.19
454.086	86.19
454.193	106.19
454.3	120.19
454.407	232.19
454.514	209.19
454.621	120.19
454.729	93.19
454.836	105.19
454.943	176.19
455.05	188.19
455.157	218.19
455.264	130.19
455.371	177.19
455.478	134.19
455.585	1368.19
455.692	357.19
455.799	249.19
455.906	82.19
456.013	113.19
456.12	55.19
456.227	119.19
456.334	154.19
456.44	227.19
456.547	128.19
456.654	75.19
456.761	154.19
456.868	199.19
456.975	164.19
457.082	146.19
457.189	70.19
457.296	88.19
457.402	115.19
457.509	23.19
457.616	162.19
457.723	327.19
457.83	131.19
457.936	52.19
458.043	417.19
458.15	139.19
458.257	178.19
458.363	147.19
458.47	155.19
458.577	132.19
458.684	55.19
458.79	161.19
458.897	113.19
459.004	203.19
459.11	108.19
459.217	103.19
459.324	181.19
459.43	246.19
459.537	423.19
459.644	160.19
459.75	87.19
459.857	531.19
459.964	147.19
460.07	192.19
460.177	183.19
460.283	218.19
460.39	259.19
460.496	188.19
460.603	195.19
460.71	167.19
460.816	119.19
460.923	150.19
461.029	200.19
461.136	157.19
461.242	201.19
461.349	173.19
461.455	114.19
461.562	530.19
461.668	232.19
461.774	194.19
461.881	259.19
461.987	192.19
462.094	174.19
462.2	224.19
462.307	257.19
462.413	146.19
462.519	98.19
462.626	211.19
462.732	145.19
462.838	135.19
462.945	280.19
463.051	155.19
463.157	126.19
463.264	215.19
463.37	251.19
463.476	197.19
463.583	182.19
463.689	182.19
463.795	138.19
463.901	167.19
464.008	352.19
464.114	142.19
464.22	84.19
464.326	231.19
464.433	113.19
464.539	167.19
464.645	151.19
464.751	387.19
464.857	193.19
464.963	92.19
465.07	258.19
465.176	198.19
465.282	186.19
465.388	355.19
465.494	112.19
465.6	143.19
465.706	127.19
465.812	50.19
465.918	186.19
466.024	161.19
466.131	194.19
466.237	116.19
466.343	71.19
466.449	121.19
466.555	87.19
466.661	88.19
466.767	99.19
466.873	110.19
466.979	311.19
467.085	162.19
467.191	177.19
467.296	80.19
467.402	113.19
467.508	143.19
467.614	277.19
467.72	136.19
467.826	99.19
467.932	110.19
468.038	66.19
468.144	160.19
468.25	82.19
468.355	52.19
468.461	182.19
468.567	48.19
468.673	106.19
468.779	141.19
468.885	139.19
468.99	51.19
469.096	91.19
469.202	229.19
469.308	194.19
469.413	165.19
469.519	175.19
469.625	57.19
469.731	110.19
469.836	122.19
469.942	291.19
470.048	120.19
470.153	135.19
470.259	165.19
470.365	210.19
470.47	158.19
470.576	175.19
470.682	123.19
470.787	87.19
470.893	103.19
470.999	107.19
471.104	194.19
471.21	117.19
471.315	29.19
471.421	63.19
471.527	300.19
471.632	221.19
471.738	173.19
471.843	65.19
471.949	218.19
472.054	178.19
472.16	100.19
472.265	137.19
472.371	72.19
472.476	81.19
472.582	231.19
472.687	120.19
472.793	23.19
472.898	103.19
473.003	114.19
473.109	55.19
473.214	64.19
473.32	105.19
473.425	171.19
473.53	103.19
473.636	115.19
473.741	64.19
473.847	72.19
473.952	150.19
474.057	223.19
474.163	171.19
474.268	56.19
474.373	209.19
474.478	71.19
474.584	45.19
474.689	178.19
474.794	135.19
474.9	366.19
475.005	139.19
475.11	282.19
475.215	87.19
475.321	107.19
475.426	281.19
475.531	216.19
475.636	70.19
475.741	110.19
475.846	235.19
475.952	335.19
476.057	210.19
476.162	181.19
476.267	276.19
476.372	363.19
476.477	104.19
476.582	197.19
476.687	116.19
476.793	127.19
476.898	69.19
477.003	179.19
477.108	151.19
477.213	44.19
477.318	26.19
477.423	204.19
477.528	230.19
477.633	166.19
477.738	164.19
477.843	101.19
477.948	114.19
478.053	99.19
478.158	100.19
478.263	154.19
478.368	117.19
478.473	207.19
478.578	133.19
478.682	74.19
478.787	217.19
478.892	146.19
478.997	195.19
479.102	151.19
479.207	73.19
479.312	200.19
479.417	182.19
479.521	98.19
479.626	205.19
479.731	114.19
479.836	140.19
479.941	246.19
480.045	202.19
480.15	210.19
480.255	133.19
480.36	46.19
480.465	195.19
480.569	332.19
480.674	123.19
480.779	53.19
480.883	104.19
480.988	128.19
481.093	105.19
481.197	179.19
481.302	82.19
481.407	194.19
481.511	2082.19
481.616	319.19
481.721	169.19
481.825	363.19
481.93	122.19
482.035	67.19
482.139	196.19
482.244	179.19
482.348	110.19
482.453	153.19
482.557	242.19
482.662	181.19
482.767	106.19
482.871	161.19
482.976	100.19
483.08	155.19
483.185	329.19
483.289	120.19
483.394	120.19
483.498	205.19
483.603	144.19
483.707	177.19
483.811	219.19
483.916	265.19
484.02	127.19
484.125	205.19
484.229	202.19
484.333	251.19
484.438	87.19
484.542	138.19
484.647	110.19
484.751	130.19
484.855	128.19
484.96	168.19
485.064	185.19
485.168	156.19
485.273	161.19
485.377	149.19
485.481	356.19
485.585	171.19
485.69	110.19
485.794	162.19
485.898	199.19
486.002	169.19
486.107	161.19
486.211	143.19
486.315	207.19
486.419	244.19
486.524	209.19
486.628	191.19
486.732	131.19
486.836	164.19
486.94	245.19
487.044	177.19
487.148	135.19
487.253	168.19
487.357	187.19
487.461	332.19
487.565	188.19
487.669	199.19
487.773	176.19
487.877	274.19
487.981	277.19
488.085	211.19
488.189	166.19
488.293	368.19
488.397	698.19
488.501	276.19
488.605	195.19
488.709	232.19
488.813	161.19
488.917	110.19
489.021	208.19
489.125	456.19
489.229	185.19
489.333	322.19
489.437	200.19
489.541	197.19
489.645	196.19
489.749	197.19
489.853	198.19
489.956	218.19
490.06	224.19
490.164	194.19
490.268	177.19
490.372	251.19
490.476	187.19
490.579	183.19
490.683	886.19
490.787	312.19
490.891	214.19
490.995	270.19
491.098	210.19
491.202	166.19
491.306	246.19
491.41	291.19
491.513	152.19
491.617	198.19
491.721	399.19
491.824	513.19
491.928	234.19
492.032	476.19
492.136	214.19
492.239	147.19
492.343	251.19
492.446	571.19
492.55	282.19
492.654	168.19
492.757	159.19
492.861	259.19
492.965	207.19
493.068	267.19
493.172	228.19
493.275	195.19
493.379	237.19
493.482	297.19
493.586	306.19
493.689	446.19
493.793	180.19
493.896	318.19
494	278.19
494.103	322.19
494.207	549.19
494.31	588.19
494.414	340.19
494.517	219.19
494.621	168.19
494.724	264.19
494.828	201.19
494.931	185.19
495.034	222.19
495.138	401.19
495.241	198.19
495.345	1054.19
495.448	427.19
495.551	195.19
495.655	215.19
495.758	199.19
495.861	178.19
495.965	175.19
496.068	282.19
496.171	236.19
496.274	150.19
496.378	216.19
496.481	245.19
496.584	213.19
496.687	258.19
496.791	271.19
496.894	225.19
496.997	202.19
497.1	238.19
497.204	211.19
497.307	148.19
497.41	402.19
497.513	406.19
497.616	217.19
497.719	169.19
497.823	173.19
497.926	151.19
498.029	209.19
498.132	225.19
498.235	196.19
498.338	223.19
498.441	359.19
498.544	182.19
498.647	246.19
498.75	400.19
498.853	391.19
498.956	249.19
499.059	431.19
499.163	251.19
499.266	241.19
499.369	258.19
499.471	277.19
499.574	354.19
499.677	297.19
499.78	339.19
499.883	249.19
499.986	297.19
500.089	332.19
500.192	298.19
500.295	312.19
500.398	286.19
500.501	324.19
500.604	273.19
500.707	242.19
500.809	330.19
500.912	376.19
501.015	369.19
501.118	357.19
501.221	376.19
501.324	300.19
501.426	357.19
501.529	213.19
501.632	246.19
501.735	194.19
501.837	223.19
501.94	220.19
502.043	173.19
502.146	287.19
502.248	255.19
502.351	199.19
502.454	299.19
502.557	168.19
502.659	257.19
502.762	228.19
502.865	182.19
502.967	182.19
503.07	195.19
503.173	295.19
503.275	200.19
503.378	199.19
503.48	204.19
503.583	290.19
503.686	265.19
503.788	545.19
503.891	232.19
503.993	414.19
504.096	223.19
504.198	239.19
504.301	170.19
504.403	227.19
504.506	242.19
504.608	226.19
504.711	222.19
504.813	321.19
504.916	244.19
505.018	207.19
505.121	209.19
505.223	237.19
505.326	215.19
505.428	335.19
505.531	231.19
505.633	243.19
505.735	181.19
505.838	207.19
505.94	198.19
506.042	136.19
506.145	207.19
506.247	276.19
506.35	161.19
506.452	321.19
506.554	238.19
506.656	282.19
506.759	213.19
506.861	237.19
506.963	204.19
507.066	267.19
507.168	342.19
507.27	167.19
507.372	177.19
507.475	212.19
507.577	222.19
507.679	200.19
507.781	154.19
507.883	183.19
507.986	150.19
508.088	228.19
508.19	259.19
508.292	211.19
508.394	190.19
508.496	184.19
508.598	153.19
508.701	177.19
508.803	225.19
508.905	132.19
509.007	188.19
509.109	321.19
509.211	243.19
509.313	172.19
509.415	149.19
509.517	202.19
509.619	116.19
509.721	224.19
509.823	184.19
509.925	319.19
510.027	193.19
510.129	249.19
510.231	192.19
510.333	160.19
510.435	154.19
510.537	167.19
510.639	188.19
510.741	160.19
510.843	237.19
510.945	137.19
511.047	234.19
511.148	236.19
511.25	114.19
511.352	140.19
511.454	132.19
511.556	233.19
511.658	129.19
511.76	300.19
511.861	307.19
511.963	127.19
512.065	194.19
512.167	158.19
512.268	354.19
512.37	246.19
512.472	215.19
512.574	250.19
512.676	255.19
512.777	197.19
512.879	145.19
512.981	142.19
513.082	208.19
513.184	168.19
513.286	647.19
513.387	291.19
513.489	306.19
513.591	249.19
513.692	279.19
513.794	248.19
513.896	127.19
513.997	135.19
514.099	133.19
514.2	188.19
514.302	203.19
514.404	209.19
514.505	118.19
514.607	195.19
514.708	168.19
514.81	242.19
514.911	222.19
515.013	202.19
515.114	276.19
515.216	164.19
515.317	169.19
515.419	203.19
515.52	184.19
515.622	181.19
515.723	266.19
515.825	302.19
515.926	206.19
516.027	179.19
516.129	131.19
516.23	187.19
516.332	237.19
516.433	226.19
516.534	260.19
516.636	198.19
516.737	207.19
516.838	1162.19
516.94	351.19
517.041	235.19
517.142	312.19
517.244	348.19
517.345	250.19
517.446	293.19
517.547	286.19
517.649	183.19
517.75	291.19
517.851	203.19
517.952	489.19
518.054	325.19
518.155	371.19
518.256	203.19
518.357	423.19
518.458	231.19
518.56	169.19
518.661	249.19
518.762	308.19
518.863	356.19
518.964	395.19
519.065	280.19
519.166	219.19
519.268	202.19
519.369	556.19
519.47	278.19
519.571	308.19
519.672	234.19
519.773	258.19
519.874	276.19
519.975	307.19
520.076	307.19
520.177	334.19
520.278	271.19
520.379	323.19
520.48	150.19
520.581	190.19
520.682	222.19
520.783	183.19
520.884	259.19
520.985	288.19
521.086	252.19
521.187	217.19
521.288	250.19
521.389	272.19
521.489	239.19
521.59	183.19
521.691	335.19
521.792	180.19
521.893	381.19
521.994	455.19
522.095	335.19
522.195	390.19
522.296	454.19
522.397	432.19
522.498	337.19
522.599	265.19
522.699	328.19
522.8	345.19
522.901	408.19
523.002	380.19
523.102	504.19
523.203	355.19
523.304	534.19
523.405	339.19
523.505	370.19
523.606	462.19
523.707	441.19
523.807	386.19
523.908	402.19
524.009	563.19
524.109	411.19
524.21	363.19
524.31	522.19
524.411	545.19
524.512	592.19
524.612	502.19
524.713	580.19
524.813	407.19
524.914	634.19
525.014	6446.19
525.115	932.19
525.216	361.19
525.316	403.19
525.417	370.19
525.517	316.19
525.618	355.19
525.718	303.19
525.819	273.19
525.919	403.19
526.019	299.19
526.12	367.19
526.22	252.19
526.321	226.19
526.421	142.19
526.522	194.19
526.622	216.19
526.722	185.19
526.823	218.19
526.923	314.19
527.023	354.19
527.124	205.19
527.224	355.19
527.324	161.19
527.425	219.19
527.525	212.19
527.625	287.19
527.726	297.19
527.826	382.19
527.926	340.19
528.026	340.19
528.127	319.19
528.227	393.19
528.327	462.19
528.427	396.19
528.528	473.19
528.628	459.19
528.728	425.19
528.828	507.19
528.928	552.19
529.029	395.19
529.129	456.19
529.229	549.19
529.329	404.19
529.429	521.19
529.529	514.19
529.629	375.19
529.729	318.19
529.829	523.19
529.93	338.19
530.03	362.19
530.13	346.19
530.23	333.19
530.33	364.19
530.43	219.19
530.53	346.19
530.63	280.19
530.73	169.19
530.83	203.19
530.93	176.19
531.03	146.19
531.13	332.19
531.23	228.19
531.33	238.19
531.429	331.19
531.529	421.19
531.629	274.19
531.729	156.19
531.829	198.19
531.929	225.19
532.029	236.19
532.129	280.19
532.229	259.19
532.328	230.19
532.428	212.19
532.528	186.19
532.628	176.19
532.728	310.19
532.827	283.19
532.927	370.19
533.027	306.19
533.127	563.19
533.227	435.19
533.326	418.19
533.426	401.19
533.526	494.19
533.625	483.19
533.725	595.19
533.825	404.19
533.924	173.19
534.024	182.19
534.124	207.19
534.223	293.19
534.323	652.19
534.423	361.19
534.522	303.19
534.622	212.19
534.722	269.19
534.821	334.19
534.921	260.19
535.02	265.19
535.12	383.19
535.219	401.19
535.319	424.19
535.419	460.19
535.518	303.19
535.618	342.19
535.717	439.19
535.817	219.19
535.916	155.19
536.016	340.19
536.115	207.19
536.215	182.19
536.314	176.19
536.413	153.19
536.513	218.19
536.612	210.19
536.712	151.19
536.811	169.19
536.91	143.19
537.01	209.19
537.109	255.19
537.209	229.19
537.308	243.19
537.407	184.19
537.507	203.19
537.606	215.19
537.705	306.19
537.805	246.19
537.904	194.19
538.003	286.19
538.102	367.19
538.202	353.19
538.301	439.19
538.4	429.19
538.499	423.19
538.599	487.19
538.698	619.19
538.797	385.19
538.896	529.19
538.995	462.19
539.095	359.19
539.194	589.19
539.293	411.19
539.392	326.19
539.491	304.19
539.59	336.19
539.689	415.19
539.789	377.19
539.888	206.19
539.987	147.19
540.086	256.19
540.185	330.19
540.284	424.19
540.383	393.19
540.482	339.19
540.581	433.19
540.68	386.19
540.779	470.19
540.878	550.19
540.977	522.19
541.076	507.19
541.175	612.19
541.274	790.19
541.373	654.19
541.472	603.19
541.571	544.19
541.67	1860.19
541.769	723.19
541.868	582.19
541.966	599.19
542.065	539.19
542.164	549.19
542.263	500.19
542.362	522.19
542.461	618.19
542.56	538.19
542.658	523.19
542.757	427.19
542.856	350.19
542.955	318.19
543.054	342.19
543.152	553.19
543.251	441.19
543.35	558.19
543.449	543.19
543.547	503.19
543.646	463.19
543.745	585.19
543.843	615.19
543.942	606.19
544.041	520.19
544.14	623.19
544.238	568.19
544.337	752.19
544.436	700.19
544.534	751.19
544.633	685.19
544.731	666.19
544.83	655.19
544.929	640.19
545.027	601.19
545.126	569.19
545.224	666.19
545.323	595.19
545.421	602.19
545.52	603.19
545.619	619.19
545.717	623.19
545.816	674.19
545.914	708.19
546.013	946.19
546.111	757.19
546.209	583.19
546.308	632.19
546.406	652.19
546.505	763.19
546.603	676.19
546.702	580.19
546.8	611.19
546.899	644.19
546.997	761.19
547.095	648.19
547.194	699.19
547.292	697.19
547.39	721.19
547.489	619.19
547.587	1007.19
547.685	682.19
547.784	841.19
547.882	710.19
547.98	596.19
548.079	702.19
548.177	600.19
548.275	601.19
548.373	769.19
548.472	556.19
548.57	648.19
548.668	741.19
548.766	597.19
548.864	798.19
548.963	667.19
549.061	786.19
549.159	626.19
549.257	717.19
549.355	593.19
549.454	585.19
549.552	695.19
549.65	581.19
549.748	576.19
549.846	612.19
549.944	590.19
550.042	557.19
550.14	595.19
550.238	594.19
550.336	517.19
550.434	572.19
550.532	586.19
550.631	717.19
550.729	617.19
550.827	675.19
550.925	514.19
551.023	568.19
551.121	487.19
551.218	463.19
551.316	389.19
551.414	423.19
551.512	324.19
551.61	410.19
551.708	522.19
551.806	524.19
551.904	448.19
552.002	423.19
552.1	558.19
552.198	517.19
552.296	670.19
552.393	774.19
552.491	680.19
552.589	649.19
552.687	729.19
552.785	675.19
552.882	743.19
552.98	826.19
553.078	752.19
553.176	695.19
553.274	559.19
553.371	651.19
553.469	633.19
553.567	622.19
553.665	633.19
553.762	1072.19
553.86	768.19
553.958	658.19
554.055	688.19
554.153	707.19
554.251	643.19
554.348	676.19
554.446	566.19
554.544	612.19
554.641	1015.19
554.739	609.19
554.837	610.19
554.934	642.19
555.032	618.19
555.129	554.19
555.227	847.19
555.324	1883.19
555.422	722.19
555.519	571.19
555.617	611.19
555.715	447.19
555.812	928.19
555.91	534.19
556.007	570.19
556.105	539.19
556.202	619.19
556.299	482.19
556.397	566.19
556.494	547.19
556.592	528.19
556.689	606.19
556.787	566.19
556.884	552.19
556.981	538.19
557.079	533.19
557.176	599.19
557.273	594.19
557.371	671.19
557.468	651.19
557.566	598.19
557.663	563.19
557.76	584.19
557.857	550.19
557.955	574.19
558.052	676.19
558.149	734.19
558.247	723.19
558.344	553.19
558.441	533.19
558.538	523.19
558.636	530.19
558.733	569.19
558.83	580.19
558.927	509.19
559.024	555.19
559.122	515.19
559.219	495.19
559.316	622.19
559.413	688.19
559.51	506.19
559.607	488.19
559.704	601.19
559.801	608.19
559.899	547.19
559.996	807.19
560.093	586.19
560.19	516.19
560.287	614.19
560.384	751.19
560.481	530.19
560.578	544.19
560.675	579.19
560.772	638.19
560.869	576.19
560.966	745.19
561.063	522.19
561.16	617.19
561.257	599.19
561.354	561.19
561.451	504.19
561.548	582.19
561.645	769.19
561.742	511.19
561.838	487.19
561.935	549.19
562.032	483.19
562.129	542.19
562.226	564.19
562.323	500.19
562.42	581.19
562.516	488.19
562.613	490.19
562.71	469.19
562.807	1269.19
562.904	558.19
563	472.19
563.097	447.19
563.194	536.19
563.291	472.19
563.387	475.19
563.484	553.19
563.581	473.19
563.678	414.19
563.774	883.19
563.871	499.19
563.968	503.19
564.064	566.19
564.161	499.19
564.258	471.19
564.354	518.19
564.451	576.19
564.548	491.19
564.644	484.19
564.741	524.19
564.837	414.19
564.934	416.19
565.031	453.19
565.127	458.19
565.224	498.19
565.32	622.19
565.417	497.19
565.513	492.19
565.61	525.19
565.706	570.19
565.803	497.19
565.899	471.19
565.996	506.19
566.092	436.19
566.189	407.19
566.285	489.19
566.382	469.19
566.478	487.19
566.574	575.19
566.671	464.19
566.767	414.19
566.864	407.19
566.96	499.19
567.056	376.19
567.153	638.19
567.249	549.19
567.345	482.19
567.442	532.19
567.538	465.19
567.634	414.19
567.731	344.19
567.827	358.19
567.923	409.19
568.019	219.19
568.116	201.19
568.212	202.19
568.308	311.19
568.404	255.19
568.501	272.19
568.597	279.19
568.693	181.19
568.789	940.19
568.885	274.19
568.982	245.19
569.078	172.19
569.174	294.19
569.27	134.19
569.366	260.19
569.462	279.19
569.558	164.19
569.655	203.19
569.751	178.19
569.847	172.19
569.943	173.19
570.039	158.19
570.135	663.19
570.231	237.19
570.327	408.19
570.423	389.19
570.519	393.19
570.615	282.19
570.711	414.19
570.807	361.19
570.903	277.19
570.999	388.19
571.095	344.19
571.191	322.19
571.287	389.19
571.383	448.19
571.479	369.19
571.574	445.19
571.67	335.19
571.766	548.19
571.862	303.19
571.958	332.19
572.054	385.19
572.15	191.19
572.246	247.19
572.341	343.19
572.437	256.19
572.533	316.19
572.629	258.19
572.725	247.19
572.82	174.19
572.916	341.19
573.012	174.19
573.108	302.19
573.203	197.19
573.299	123.19
573.395	115.19
573.49	144.19
573.586	166.19
573.682	168.19
573.778	335.19
573.873	157.19
573.969	177.19
574.065	177.19
574.16	226.19
574.256	239.19
574.351	286.19
574.447	241.19
574.543	232.19
574.638	308.19
574.734	297.19
574.829	511.19
574.925	282.19
575.02	266.19
575.116	256.19
575.212	274.19
575.307	391.19
575.403	289.19
575.498	288.19
575.594	219.19
575.689	345.19
575.784	296.19
575.88	298.19
575.975	399.19
576.071	270.19
576.166	193.19
576.262	329.19
576.357	256.19
576.452	404.19
576.548	313.19
576.643	318.19
576.739	308.19
576.834	299.19
576.929	300.19
577.025	961.19
577.12	275.19
577.215	197.19
577.311	279.19
577.406	295.19
577.501	428.19
577.597	195.19
577.692	356.19
577.787	372.19
577.882	268.19
577.978	261.19
578.073	213.19
578.168	230.19
578.263	187.19
578.358	195.19
578.454	176.19
578.549	131.19
578.644	115.19
578.739	232.19
578.834	192.19
578.929	102.19
579.025	156.19
579.12	262.19
579.215	404.19
579.31	379.19
579.405	201.19
579.5	242.19
579.595	179.19
579.69	132.19
579.785	176.19
579.88	117.19
579.975	169.19
580.07	187.19
580.165	194.19
580.26	290.19
580.355	278.19
580.45	178.19
580.545	180.19
580.64	275.19
580.735	332.19
580.83	277.19
580.925	195.19
581.02	174.19
581.115	133.19
581.21	144.19
581.305	258.19
581.4	216.19
581.495	203.19
581.589	218.19
581.684	119.19
581.779	240.19
581.874	246.19
581.969	178.19
582.064	146.19
582.158	227.19
582.253	161.19
582.348	179.19
582.443	225.19
582.537	232.19
582.632	425.19
582.727	219.19
582.822	227.19
582.916	147.19
583.011	162.19
583.106	259.19
583.201	137.19
583.295	158.19
583.39	150.19
583.485	156.19
583.579	2239.19
583.674	434.19
583.769	450.19
583.863	144.19
583.958	130.19
584.052	111.19
584.147	124.19
584.242	142.19
584.336	217.19
584.431	345.19
584.525	127.19
584.62	334.19
584.714	286.19
584.809	160.19
584.903	203.19
584.998	257.19
585.092	92.19
585.187	167.19
585.281	154.19
585.376	159.19
585.47	176.19
585.565	187.19
585.659	65.19
585.754	97.19
585.848	175.19
585.942	146.19
586.037	132.19
586.131	1451.19
586.226	266.19
586.32	220.19
586.414	57.19
586.509	259.19
586.603	213.19
586.697	143.19
586.792	119.19
586.886	78.19
586.98	235.19
587.075	143.19
587.169	114.19
587.263	321.19
587.357	168.19
587.452	122.19
587.546	213.19
587.64	106.19
587.734	181.19
587.829	162.19
587.923	88.19
588.017	159.19
588.111	96.19
588.205	184.19
588.3	90.19
588.394	9.19
588.488	58.19
588.582	162.19
588.676	220.19
588.77	191.19
588.864	380.19
588.958	326.19
589.052	143.19
589.147	262.19
589.241	253.19
589.335	138.19
589.429	255.19
589.523	239.19
589.617	239.19
589.711	186.19
589.805	184.19
589.899	351.19
589.993	97.19
590.087	88.19
590.181	113.19
590.275	108.19
590.369	91.19
590.462	80.19
590.556	46.19
590.65	48.19
590.744	79.19
590.838	81.19
590.932	70.19
591.026	170.19
591.12	319.19
591.214	117.19
591.307	94.19
591.401	129.19
591.495	207.19
591.589	82.19
591.683	175.19
591.777	178.19
591.87	485.19
591.964	203.19
592.058	120.19
592.152	163.19
592.245	154.19
592.339	220.19
592.433	230.19
592.527	161.19
592.62	104.19
592.714	129.19
592.808	174.19
592.901	190.19
592.995	90.19
593.089	339.19
593.182	173.19
593.276	113.19
593.37	72.19
593.463	73.19
593.557	154.19
593.65	94.19
593.744	91.19
593.837	232.19
593.931	98.19
594.025	3623.19
594.118	523.19
594.212	144.19
594.305	78.19
594.399	187.19
594.492	549.19
594.586	168.19
594.679	127.19
594.773	165.19
594.866	187.19
594.96	118.19
595.053	142.19
595.146	120.19
595.24	121.19
595.333	127.19
595.427	67.19
595.52	55.19
595.614	252.19
595.707	163.19
595.8	104.19
595.894	161.19
595.987	179.19
596.08	81.19
596.174	598.19
596.267	331.19
596.36	297.19
596.454	313.19
596.547	301.19
596.64	160.19
596.733	98.19
596.827	271.19
596.92	175.19
597.013	91.19
597.106	69.19
597.2	129.19
597.293	58.19
597.386	374.19
597.479	176.19
597.572	171.19
597.666	81.19
597.759	132.19
597.852	229.19
597.945	56.19
598.038	110.19
598.131	147.19
598.224	130.19
598.317	214.19
598.411	203.19
598.504	81.19
598.597	193.19
598.69	151.19
598.783	103.19
598.876	162.19
598.969	162.19
599.062	111.19
599.155	200.19
599.248	85.19
599.341	202.19
599.434	87.19
599.527	160.19
599.62	153.19
599.713	67.19
599.806	178.19
599.899	366.19
599.991	119.19
600.084	408.19
600.177	114.19
600.27	102.19
600.363	330.19
600.456	121.19
600.549	231.19
600.642	94.19
600.734	153.19
600.827	199.19
600.92	284.19
601.013	166.19
601.106	327.19
601.199	127.19
601.291	150.19
601.384	235.19
601.477	425.19
601.57	326.19
601.662	144.19
601.755	214.19
601.848	239.19
601.94	170.19
602.033	372.19
602.126	235.19
602.219	193.19
602.311	337.19
602.404	187.19
602.497	197.19
602.589	168.19
602.682	280.19
602.774	227.19
602.867	190.19
602.96	193.19
603.052	248.19
603.145	187.19
603.237	253.19
603.33	178.19
603.422	304.19
603.515	191.19
603.608	194.19
603.7	169.19
603.793	196.19
603.885	225.19
603.978	118.19
604.07	175.19
604.163	148.19
604.255	179.19
604.347	115.19
604.44	121.19
604.532	217.19
604.625	151.19
604.717	138.19
604.81	230.19
604.902	141.19
604.994	128.19
605.087	149.19
605.179	169.19
605.271	191.19
605.364	210.19
605.456	224.19
605.548	147.19
605.641	227.19
605.733	159.19
605.825	184.19
605.918	146.19
606.01	350.19
606.102	729.19
606.194	270.19
606.287	399.19
606.379	169.19
606.471	234.19
606.563	329.19
606.655	277.19
606.748	286.19
606.84	272.19
606.932	303.19
607.024	172.19
607.116	176.19
607.208	211.19
607.301	234.19
607.393	233.19
607.485	243.19
607.577	241.19
607.669	335.19
607.761	320.19
607.853	527.19
607.945	215.19
608.037	199.19
608.129	191.19
608.221	220.19
608.313	209.19
608.405	289.19
608.497	210.19
608.589	186.19
608.681	249.19
608.773	282.19
608.865	244.19
608.957	275.19
609.049	204.19
609.141	258.19
609.233	220.19
609.325	144.19
609.417	167.19
609.509	285.19
609.601	366.19
609.693	280.19
609.784	197.19
609.876	241.19
609.968	220.19
610.06	2870.19
610.152	547.19
610.244	516.19
610.335	207.19
610.427	243.19
610.519	225.19
610.611	239.19
610.702	243.19
610.794	267.19
610.886	327.19
610.978	283.19
611.069	814.19
611.161	250.19
611.253	322.19
611.344	251.19
611.436	143.19
611.528	292.19
611.62	234.19
611.711	207.19
611.803	174.19
611.894	179.19
611.986	191.19
612.078	211.19
612.169	224.19
612.261	278.19
612.352	156.19
612.444	140.19
612.536	345.19
612.627	218.19
612.719	156.19
612.81	160.19
612.902	90.19
612.993	159.19
613.085	160.19
613.176	113.19
613.268	146.19
613.359	131.19
613.451	196.19
613.542	149.19
613.634	134.19
613.725	204.19
613.816	267.19
613.908	111.19
613.999	162.19
614.091	44.19
614.182	36.19
614.273	177.19
614.365	118.19
614.456	48.19
614.547	99.19
614.639	63.19
614.73	50.19
614.821	147.19
614.913	72.19
615.004	7.19
615.095	33.19
615.187	64.19
