Data from 42g_HRC06701__39__526.txt Node

Date: Thu Apr 18 02:42:42 CDT 2024
User: Estudiantes 2
Spectrometer: HR+C0670
Trigger mode: 4
Integration Time (sec): 1.000000E0
Scans to average: 1
Electric dark correction enabled: true
Nonlinearity correction enabled: false
Boxcar width: 0
XAxis mode: Wavelengths
Number of Pixels in Spectrum: 2048
>>>>>Begin Spectral Data<<<<<
407.81	-147.81
407.921	-147.81
408.032	-147.81
408.143	-111.81
408.254	-174.81
408.365	35.19
408.476	316.19
408.587	-29.81
408.699	-19.81
408.81	1.19
408.921	-43.81
409.032	-39.81
409.143	64.19
409.254	43.19
409.365	74.19
409.476	-55.81
409.587	34.19
409.698	55.19
409.809	64.19
409.92	9.19
410.031	-43.81
410.142	80.19
410.253	51.19
410.364	43.19
410.475	8.19
410.585	289.19
410.696	357.19
410.807	283.19
410.918	320.19
411.029	358.19
411.14	310.19
411.251	302.19
411.362	415.19
411.472	392.19
411.583	399.19
411.694	405.19
411.805	275.19
411.916	306.19
412.026	427.19
412.137	334.19
412.248	333.19
412.359	343.19
412.47	305.19
412.58	262.19
412.691	350.19
412.802	419.19
412.912	283.19
413.023	340.19
413.134	382.19
413.245	417.19
413.355	293.19
413.466	279.19
413.577	328.19
413.687	429.19
413.798	267.19
413.909	430.19
414.019	300.19
414.13	352.19
414.24	338.19
414.351	369.19
414.462	472.19
414.572	436.19
414.683	404.19
414.793	320.19
414.904	705.19
415.014	363.19
415.125	257.19
415.235	313.19
415.346	511.19
415.456	480.19
415.567	339.19
415.677	407.19
415.788	368.19
415.898	310.19
416.009	348.19
416.119	391.19
416.23	303.19
416.34	258.19
416.45	386.19
416.561	1157.19
416.671	491.19
416.782	301.19
416.892	293.19
417.002	390.19
417.113	423.19
417.223	335.19
417.333	324.19
417.444	352.19
417.554	416.19
417.664	384.19
417.775	308.19
417.885	390.19
417.995	359.19
418.106	494.19
418.216	433.19
418.326	373.19
418.436	358.19
418.547	413.19
418.657	288.19
418.767	425.19
418.877	394.19
418.987	370.19
419.098	382.19
419.208	383.19
419.318	513.19
419.428	401.19
419.538	347.19
419.648	464.19
419.759	440.19
419.869	449.19
419.979	404.19
420.089	416.19
420.199	375.19
420.309	437.19
420.419	447.19
420.529	402.19
420.639	948.19
420.749	523.19
420.859	494.19
420.969	384.19
421.079	658.19
421.189	515.19
421.299	456.19
421.409	386.19
421.519	477.19
421.629	521.19
421.739	455.19
421.849	369.19
421.959	357.19
422.069	485.19
422.179	435.19
422.289	388.19
422.399	433.19
422.509	558.19
422.619	4148.19
422.729	824.19
422.838	435.19
422.948	502.19
423.058	420.19
423.168	427.19
423.278	479.19
423.388	472.19
423.498	544.19
423.607	483.19
423.717	738.19
423.827	764.19
423.937	524.19
424.046	571.19
424.156	565.19
424.266	498.19
424.376	686.19
424.485	641.19
424.595	457.19
424.705	463.19
424.815	481.19
424.924	930.19
425.034	623.19
425.144	400.19
425.253	492.19
425.363	557.19
425.473	553.19
425.582	439.19
425.692	485.19
425.801	391.19
425.911	633.19
426.021	535.19
426.13	628.19
426.24	725.19
426.349	639.19
426.459	583.19
426.568	475.19
426.678	610.19
426.787	548.19
426.897	460.19
427.006	507.19
427.116	597.19
427.225	488.19
427.335	539.19
427.444	481.19
427.554	632.19
427.663	517.19
427.773	458.19
427.882	566.19
427.992	483.19
428.101	471.19
428.21	567.19
428.32	514.19
428.429	471.19
428.539	819.19
428.648	529.19
428.757	583.19
428.867	556.19
428.976	660.19
429.085	569.19
429.195	500.19
429.304	571.19
429.413	579.19
429.523	595.19
429.632	641.19
429.741	567.19
429.85	526.19
429.96	592.19
430.069	524.19
430.178	525.19
430.287	847.19
430.397	619.19
430.506	541.19
430.615	524.19
430.724	599.19
430.833	588.19
430.943	606.19
431.052	688.19
431.161	533.19
431.27	616.19
431.379	555.19
431.488	747.19
431.597	672.19
431.706	732.19
431.816	655.19
431.925	605.19
432.034	588.19
432.143	687.19
432.252	584.19
432.361	685.19
432.47	673.19
432.579	590.19
432.688	606.19
432.797	648.19
432.906	562.19
433.015	626.19
433.124	1041.19
433.233	706.19
433.342	668.19
433.451	632.19
433.56	644.19
433.669	599.19
433.778	619.19
433.886	694.19
433.995	650.19
434.104	735.19
434.213	672.19
434.322	690.19
434.431	771.19
434.54	723.19
434.649	881.19
434.757	734.19
434.866	691.19
434.975	791.19
435.084	788.19
435.193	767.19
435.301	1003.19
435.41	1105.19
435.519	1104.19
435.628	674.19
435.737	608.19
435.845	540.19
435.954	562.19
436.063	670.19
436.171	590.19
436.28	627.19
436.389	763.19
436.498	621.19
436.606	603.19
436.715	815.19
436.823	541.19
436.932	560.19
437.041	550.19
437.149	668.19
437.258	504.19
437.367	512.19
437.475	548.19
437.584	805.19
437.692	566.19
437.801	2137.19
437.91	714.19
438.018	492.19
438.127	503.19
438.235	571.19
438.344	503.19
438.452	536.19
438.561	541.19
438.669	511.19
438.778	460.19
438.886	549.19
438.995	499.19
439.103	533.19
439.212	614.19
439.32	471.19
439.428	488.19
439.537	579.19
439.645	628.19
439.754	528.19
439.862	534.19
439.97	592.19
440.079	544.19
440.187	487.19
440.295	687.19
440.404	547.19
440.512	582.19
440.62	654.19
440.729	649.19
440.837	640.19
440.945	1262.19
441.054	703.19
441.162	590.19
441.27	723.19
441.378	676.19
441.487	628.19
441.595	987.19
441.703	798.19
441.811	664.19
441.92	593.19
442.028	596.19
442.136	644.19
442.244	688.19
442.352	681.19
442.461	551.19
442.569	501.19
442.677	601.19
442.785	676.19
442.893	542.19
443.001	547.19
443.109	577.19
443.217	531.19
443.325	535.19
443.434	1144.19
443.542	780.19
443.65	618.19
443.758	797.19
443.866	630.19
443.974	983.19
444.082	686.19
444.19	719.19
444.298	751.19
444.406	816.19
444.514	795.19
444.622	824.19
444.73	838.19
444.838	774.19
444.946	745.19
445.054	653.19
445.161	683.19
445.269	628.19
445.377	701.19
445.485	648.19
445.593	654.19
445.701	869.19
445.809	674.19
445.917	684.19
446.025	519.19
446.132	693.19
446.24	723.19
446.348	632.19
446.456	510.19
446.564	575.19
446.671	624.19
446.779	568.19
446.887	555.19
446.995	638.19
447.102	607.19
447.21	627.19
447.318	637.19
447.426	502.19
447.533	829.19
447.641	1909.19
447.749	695.19
447.856	547.19
447.964	600.19
448.072	687.19
448.179	501.19
448.287	635.19
448.395	660.19
448.502	523.19
448.61	556.19
448.718	601.19
448.825	594.19
448.933	591.19
449.04	559.19
449.148	605.19
449.256	569.19
449.363	625.19
449.471	623.19
449.578	672.19
449.686	575.19
449.793	712.19
449.901	574.19
450.008	658.19
450.116	671.19
450.223	538.19
450.331	679.19
450.438	651.19
450.546	669.19
450.653	685.19
450.76	677.19
450.868	752.19
450.975	839.19
451.083	653.19
451.19	792.19
451.297	674.19
451.405	665.19
451.512	703.19
451.619	824.19
451.727	768.19
451.834	671.19
451.941	681.19
452.049	648.19
452.156	678.19
452.263	725.19
452.371	679.19
452.478	726.19
452.585	854.19
452.692	634.19
452.8	699.19
452.907	918.19
453.014	705.19
453.121	677.19
453.229	799.19
453.336	813.19
453.443	804.19
453.55	686.19
453.657	767.19
453.765	802.19
453.872	735.19
453.979	855.19
454.086	710.19
454.193	760.19
454.3	754.19
454.407	840.19
454.514	831.19
454.621	715.19
454.729	732.19
454.836	744.19
454.943	768.19
455.05	854.19
455.157	795.19
455.264	721.19
455.371	833.19
455.478	758.19
455.585	2042.19
455.692	979.19
455.799	922.19
455.906	728.19
456.013	772.19
456.12	740.19
456.227	773.19
456.334	816.19
456.44	946.19
456.547	774.19
456.654	751.19
456.761	807.19
456.868	842.19
456.975	818.19
457.082	803.19
457.189	733.19
457.296	791.19
457.402	776.19
457.509	810.19
457.616	813.19
457.723	1022.19
457.83	868.19
457.936	819.19
458.043	1115.19
458.15	892.19
458.257	941.19
458.363	840.19
458.47	903.19
458.577	941.19
458.684	917.19
458.79	953.19
458.897	1019.19
459.004	1036.19
459.11	1000.19
459.217	1074.19
459.324	1081.19
459.43	1166.19
459.537	1383.19
459.644	1053.19
459.75	1053.19
459.857	1518.19
459.964	1205.19
460.07	1193.19
460.177	1160.19
460.283	1268.19
460.39	1324.19
460.496	1243.19
460.603	1313.19
460.71	1199.19
460.816	1172.19
460.923	1200.19
461.029	1194.19
461.136	1202.19
461.242	1194.19
461.349	1257.19
461.455	1144.19
461.562	1514.19
461.668	1297.19
461.774	1217.19
461.881	1302.19
461.987	1300.19
462.094	1291.19
462.2	1334.19
462.307	1422.19
462.413	1269.19
462.519	1325.19
462.626	1526.19
462.732	1463.19
462.838	1605.19
462.945	1682.19
463.051	1636.19
463.157	1553.19
463.264	1587.19
463.37	1574.19
463.476	1412.19
463.583	1397.19
463.689	1372.19
463.795	1355.19
463.901	1472.19
464.008	1518.19
464.114	1368.19
464.22	1325.19
464.326	1426.19
464.433	1280.19
464.539	1354.19
464.645	1259.19
464.751	1526.19
464.857	1259.19
464.963	1123.19
465.07	1219.19
465.176	1143.19
465.282	1056.19
465.388	1172.19
465.494	915.19
465.6	964.19
465.706	932.19
465.812	888.19
465.918	941.19
466.024	924.19
466.131	994.19
466.237	856.19
466.343	703.19
466.449	809.19
466.555	777.19
466.661	766.19
466.767	808.19
466.873	832.19
466.979	950.19
467.085	806.19
467.191	827.19
467.296	760.19
467.402	757.19
467.508	877.19
467.614	933.19
467.72	760.19
467.826	765.19
467.932	725.19
468.038	681.19
468.144	720.19
468.25	718.19
468.355	610.19
468.461	726.19
468.567	696.19
468.673	694.19
468.779	724.19
468.885	728.19
468.99	619.19
469.096	712.19
469.202	869.19
469.308	739.19
469.413	789.19
469.519	758.19
469.625	757.19
469.731	835.19
469.836	738.19
469.942	929.19
470.048	806.19
470.153	770.19
470.259	865.19
470.365	842.19
470.47	872.19
470.576	836.19
470.682	736.19
470.787	693.19
470.893	684.19
470.999	737.19
471.104	756.19
471.21	654.19
471.315	636.19
471.421	617.19
471.527	813.19
471.632	798.19
471.738	715.19
471.843	605.19
471.949	702.19
472.054	667.19
472.16	581.19
472.265	649.19
472.371	640.19
472.476	646.19
472.582	697.19
472.687	667.19
472.793	541.19
472.898	609.19
473.003	612.19
473.109	511.19
473.214	499.19
473.32	582.19
473.425	640.19
473.53	542.19
473.636	588.19
473.741	562.19
473.847	533.19
473.952	599.19
474.057	651.19
474.163	637.19
474.268	527.19
474.373	670.19
474.478	564.19
474.584	493.19
474.689	663.19
474.794	598.19
474.9	843.19
475.005	541.19
475.11	787.19
475.215	558.19
475.321	571.19
475.426	799.19
475.531	735.19
475.636	610.19
475.741	593.19
475.846	687.19
475.952	786.19
476.057	692.19
476.162	693.19
476.267	751.19
476.372	879.19
476.477	662.19
476.582	697.19
476.687	579.19
476.793	659.19
476.898	625.19
477.003	643.19
477.108	637.19
477.213	614.19
477.318	572.19
477.423	688.19
477.528	791.19
477.633	753.19
477.738	703.19
477.843	672.19
477.948	673.19
478.053	671.19
478.158	717.19
478.263	750.19
478.368	694.19
478.473	820.19
478.578	751.19
478.682	697.19
478.787	832.19
478.892	758.19
478.997	783.19
479.102	714.19
479.207	767.19
479.312	853.19
479.417	788.19
479.521	747.19
479.626	811.19
479.731	777.19
479.836	779.19
479.941	913.19
480.045	884.19
480.15	816.19
480.255	851.19
480.36	775.19
480.465	848.19
480.569	975.19
480.674	779.19
480.779	731.19
480.883	791.19
480.988	791.19
481.093	747.19
481.197	838.19
481.302	774.19
481.407	804.19
481.511	2694.19
481.616	931.19
481.721	766.19
481.825	952.19
481.93	787.19
482.035	711.19
482.139	772.19
482.244	834.19
482.348	743.19
482.453	753.19
482.557	821.19
482.662	785.19
482.767	703.19
482.871	720.19
482.976	725.19
483.08	723.19
483.185	913.19
483.289	791.19
483.394	791.19
483.498	790.19
483.603	812.19
483.707	829.19
483.811	864.19
483.916	940.19
484.02	814.19
484.125	898.19
484.229	847.19
484.333	931.19
484.438	792.19
484.542	815.19
484.647	839.19
484.751	836.19
484.855	813.19
484.96	895.19
485.064	905.19
485.168	851.19
485.273	857.19
485.377	871.19
485.481	1062.19
485.585	897.19
485.69	914.19
485.794	960.19
485.898	912.19
486.002	976.19
486.107	912.19
486.211	908.19
486.315	962.19
486.419	1006.19
486.524	942.19
486.628	939.19
486.732	933.19
486.836	888.19
486.94	963.19
487.044	940.19
487.148	894.19
487.253	846.19
487.357	925.19
487.461	1044.19
487.565	924.19
487.669	967.19
487.773	913.19
487.877	1013.19
487.981	1026.19
488.085	955.19
488.189	932.19
488.293	1071.19
488.397	1479.19
488.501	972.19
488.605	916.19
488.709	942.19
488.813	884.19
488.917	865.19
489.021	929.19
489.125	1221.19
489.229	921.19
489.333	1073.19
489.437	968.19
489.541	945.19
489.645	891.19
489.749	951.19
489.853	1027.19
489.956	948.19
490.06	1052.19
490.164	960.19
490.268	910.19
490.372	996.19
490.476	934.19
490.579	929.19
490.683	1575.19
490.787	1052.19
490.891	931.19
490.995	984.19
491.098	1029.19
491.202	943.19
491.306	974.19
491.41	1035.19
491.513	896.19
491.617	914.19
491.721	1155.19
491.824	1213.19
491.928	957.19
492.032	1235.19
492.136	983.19
492.239	896.19
492.343	898.19
492.446	1345.19
492.55	1015.19
492.654	909.19
492.757	939.19
492.861	992.19
492.965	982.19
493.068	1007.19
493.172	918.19
493.275	915.19
493.379	897.19
493.482	1056.19
493.586	1089.19
493.689	1233.19
493.793	992.19
493.896	1089.19
494	1078.19
494.103	1090.19
494.207	1273.19
494.31	1378.19
494.414	1072.19
494.517	1023.19
494.621	905.19
494.724	982.19
494.828	966.19
494.931	894.19
495.034	915.19
495.138	1137.19
495.241	927.19
495.345	1810.19
495.448	1151.19
495.551	923.19
495.655	903.19
495.758	891.19
495.861	873.19
495.965	897.19
496.068	976.19
496.171	1058.19
496.274	916.19
496.378	905.19
496.481	1006.19
496.584	963.19
496.687	1005.19
496.791	1055.19
496.894	999.19
496.997	976.19
497.1	1009.19
497.204	1028.19
497.307	912.19
497.41	1218.19
497.513	1286.19
497.616	1032.19
497.719	1016.19
497.823	1046.19
497.926	1093.19
498.029	1106.19
498.132	1203.19
498.235	1190.19
498.338	1234.19
498.441	1330.19
498.544	1254.19
498.647	1253.19
498.75	1477.19
498.853	1620.19
498.956	1482.19
499.059	1768.19
499.163	1650.19
499.266	1715.19
499.369	1771.19
499.471	1899.19
499.574	2089.19
499.677	2110.19
499.78	2200.19
499.883	2374.19
499.986	2590.19
500.089	2585.19
500.192	2795.19
500.295	2807.19
500.398	2718.19
500.501	2750.19
500.604	2533.19
500.707	2393.19
500.809	2330.19
500.912	2271.19
501.015	2129.19
501.118	1972.19
501.221	1924.19
501.324	1697.19
501.426	1607.19
501.529	1581.19
501.632	1508.19
501.735	1360.19
501.837	1343.19
501.94	1231.19
502.043	1174.19
502.146	1276.19
502.248	1182.19
502.351	1080.19
502.454	1151.19
502.557	1052.19
502.659	1054.19
502.762	1020.19
502.865	1009.19
502.967	924.19
503.07	951.19
503.173	1050.19
503.275	903.19
503.378	931.19
503.48	944.19
503.583	967.19
503.686	933.19
503.788	1183.19
503.891	917.19
503.993	1093.19
504.096	924.19
504.198	979.19
504.301	867.19
504.403	938.19
504.506	967.19
504.608	901.19
504.711	878.19
504.813	964.19
504.916	887.19
505.018	789.19
505.121	752.19
505.223	810.19
505.326	774.19
505.428	877.19
505.531	804.19
505.633	743.19
505.735	656.19
505.838	751.19
505.94	709.19
506.042	624.19
506.145	640.19
506.247	772.19
506.35	608.19
506.452	734.19
506.554	777.19
506.656	693.19
506.759	589.19
506.861	751.19
506.963	681.19
507.066	706.19
507.168	827.19
507.27	632.19
507.372	605.19
507.475	648.19
507.577	663.19
507.679	593.19
507.781	588.19
507.883	648.19
507.986	595.19
508.088	652.19
508.19	685.19
508.292	684.19
508.394	604.19
508.496	628.19
508.598	609.19
508.701	579.19
508.803	661.19
508.905	591.19
509.007	597.19
509.109	717.19
509.211	718.19
509.313	533.19
509.415	546.19
509.517	660.19
509.619	548.19
509.721	596.19
509.823	621.19
509.925	719.19
510.027	621.19
510.129	652.19
510.231	682.19
510.333	560.19
510.435	565.19
510.537	635.19
510.639	672.19
510.741	583.19
510.843	729.19
510.945	584.19
511.047	698.19
511.148	673.19
511.25	579.19
511.352	587.19
511.454	551.19
511.556	664.19
511.658	575.19
511.76	731.19
511.861	760.19
511.963	567.19
512.065	588.19
512.167	606.19
512.268	737.19
512.37	643.19
512.472	609.19
512.574	681.19
512.676	669.19
512.777	626.19
512.879	613.19
512.981	561.19
513.082	644.19
513.184	642.19
513.286	1032.19
513.387	695.19
513.489	835.19
513.591	707.19
513.692	677.19
513.794	665.19
513.896	536.19
513.997	542.19
514.099	564.19
514.2	644.19
514.302	637.19
514.404	624.19
514.505	664.19
514.607	693.19
514.708	637.19
514.81	734.19
514.911	731.19
515.013	728.19
515.114	734.19
515.216	637.19
515.317	706.19
515.419	651.19
515.52	696.19
515.622	675.19
515.723	678.19
515.825	833.19
515.926	763.19
516.027	669.19
516.129	724.19
516.23	744.19
516.332	782.19
516.433	754.19
516.534	845.19
516.636	707.19
516.737	776.19
516.838	1937.19
516.94	1028.19
517.041	894.19
517.142	1101.19
517.244	1059.19
517.345	1017.19
517.446	1080.19
517.547	1046.19
517.649	943.19
517.75	1067.19
517.851	955.19
517.952	1237.19
518.054	994.19
518.155	1104.19
518.256	902.19
518.357	1010.19
518.458	916.19
518.56	782.19
518.661	832.19
518.762	860.19
518.863	900.19
518.964	934.19
519.065	782.19
519.166	785.19
519.268	699.19
519.369	1025.19
519.47	834.19
519.571	777.19
519.672	715.19
519.773	738.19
519.874	735.19
519.975	808.19
520.076	766.19
520.177	799.19
520.278	728.19
520.379	788.19
520.48	651.19
520.581	660.19
520.682	664.19
520.783	705.19
520.884	756.19
520.985	766.19
521.086	706.19
521.187	743.19
521.288	665.19
521.389	781.19
521.489	675.19
521.59	703.19
521.691	731.19
521.792	672.19
521.893	785.19
521.994	849.19
522.095	816.19
522.195	780.19
522.296	853.19
522.397	872.19
522.498	749.19
522.599	669.19
522.699	748.19
522.8	734.19
522.901	801.19
523.002	766.19
523.102	923.19
523.203	736.19
523.304	898.19
523.405	765.19
523.505	727.19
523.606	731.19
523.707	843.19
523.807	728.19
523.908	735.19
524.009	897.19
524.109	775.19
524.21	707.19
524.31	824.19
524.411	913.19
524.512	837.19
524.612	769.19
524.713	960.19
524.813	720.19
524.914	989.19
525.014	6878.19
525.115	1285.19
525.216	682.19
525.316	812.19
525.417	833.19
525.517	695.19
525.618	724.19
525.718	718.19
525.819	693.19
525.919	779.19
526.019	744.19
526.12	806.19
526.22	706.19
526.321	721.19
526.421	648.19
526.522	694.19
526.622	662.19
526.722	683.19
526.823	726.19
526.923	787.19
527.023	868.19
527.124	659.19
527.224	829.19
527.324	654.19
527.425	736.19
527.525	642.19
527.625	754.19
527.726	715.19
527.826	815.19
527.926	763.19
528.026	728.19
528.127	642.19
528.227	764.19
528.327	848.19
528.427	727.19
528.528	801.19
528.628	821.19
528.728	790.19
528.828	847.19
528.928	915.19
529.029	778.19
529.129	782.19
529.229	837.19
529.329	782.19
529.429	816.19
529.529	831.19
529.629	848.19
529.729	737.19
529.829	928.19
529.93	764.19
530.03	808.19
530.13	801.19
530.23	807.19
530.33	900.19
530.43	681.19
530.53	768.19
530.63	759.19
530.73	622.19
530.83	636.19
530.93	692.19
531.03	642.19
531.13	789.19
531.23	676.19
531.33	759.19
531.429	797.19
531.529	919.19
531.629	715.19
531.729	626.19
531.829	693.19
531.929	672.19
532.029	674.19
532.129	628.19
532.229	782.19
532.328	654.19
532.428	672.19
532.528	688.19
532.628	652.19
532.728	721.19
532.827	703.19
532.927	742.19
533.027	636.19
533.127	848.19
533.227	761.19
533.326	669.19
533.426	669.19
533.526	894.19
533.625	838.19
533.725	1017.19
533.825	838.19
533.924	612.19
534.024	568.19
534.124	638.19
534.223	698.19
534.323	1076.19
534.423	741.19
534.522	723.19
534.622	577.19
534.722	640.19
534.821	741.19
534.921	618.19
535.02	610.19
535.12	798.19
535.219	763.19
535.319	791.19
535.419	807.19
535.518	615.19
535.618	657.19
535.717	739.19
535.817	601.19
535.916	534.19
536.016	646.19
536.115	626.19
536.215	586.19
536.314	578.19
536.413	567.19
536.513	577.19
536.612	543.19
536.712	552.19
536.811	547.19
536.91	521.19
537.01	545.19
537.109	670.19
537.209	584.19
537.308	564.19
537.407	577.19
537.507	610.19
537.606	561.19
537.705	675.19
537.805	575.19
537.904	482.19
538.003	663.19
538.102	684.19
538.202	596.19
538.301	653.19
538.4	678.19
538.499	605.19
538.599	597.19
538.698	885.19
538.797	592.19
538.896	666.19
538.995	672.19
539.095	604.19
539.194	797.19
539.293	639.19
539.392	557.19
539.491	563.19
539.59	584.19
539.689	732.19
539.789	680.19
539.888	479.19
539.987	500.19
540.086	551.19
540.185	569.19
540.284	662.19
540.383	553.19
540.482	496.19
540.581	613.19
540.68	583.19
540.779	651.19
540.878	606.19
540.977	693.19
541.076	584.19
541.175	640.19
541.274	902.19
541.373	711.19
541.472	724.19
541.571	639.19
541.67	1957.19
541.769	827.19
541.868	646.19
541.966	693.19
542.065	611.19
542.164	634.19
542.263	596.19
542.362	610.19
542.461	684.19
542.56	744.19
542.658	707.19
542.757	558.19
542.856	532.19
542.955	518.19
543.054	497.19
543.152	720.19
543.251	575.19
543.35	713.19
543.449	592.19
543.547	652.19
543.646	550.19
543.745	610.19
543.843	723.19
543.942	642.19
544.041	595.19
544.14	671.19
544.238	619.19
544.337	814.19
544.436	706.19
544.534	855.19
544.633	659.19
544.731	639.19
544.83	742.19
544.929	675.19
545.027	633.19
545.126	654.19
545.224	704.19
545.323	638.19
545.421	683.19
545.52	661.19
545.619	639.19
545.717	655.19
545.816	710.19
545.914	699.19
546.013	900.19
546.111	852.19
546.209	632.19
546.308	607.19
546.406	668.19
546.505	796.19
546.603	687.19
546.702	635.19
546.8	597.19
546.899	639.19
546.997	700.19
547.095	690.19
547.194	659.19
547.292	664.19
547.39	765.19
547.489	638.19
547.587	912.19
547.685	709.19
547.784	871.19
547.882	729.19
547.98	618.19
548.079	721.19
548.177	607.19
548.275	607.19
548.373	802.19
548.472	578.19
548.57	648.19
548.668	774.19
548.766	621.19
548.864	804.19
548.963	660.19
549.061	817.19
549.159	609.19
549.257	756.19
549.355	695.19
549.454	646.19
549.552	725.19
549.65	701.19
549.748	626.19
549.846	664.19
549.944	672.19
550.042	582.19
550.14	682.19
550.238	687.19
550.336	595.19
550.434	561.19
550.532	625.19
550.631	734.19
550.729	611.19
550.827	744.19
550.925	632.19
551.023	638.19
551.121	562.19
551.218	587.19
551.316	546.19
551.414	573.19
551.512	560.19
551.61	590.19
551.708	652.19
551.806	635.19
551.904	580.19
552.002	544.19
552.1	613.19
552.198	625.19
552.296	782.19
552.393	765.19
552.491	818.19
552.589	754.19
552.687	811.19
552.785	802.19
552.882	876.19
552.98	958.19
553.078	880.19
553.176	833.19
553.274	648.19
553.371	699.19
553.469	763.19
553.567	749.19
553.665	700.19
553.762	1220.19
553.86	816.19
553.958	748.19
554.055	750.19
554.153	748.19
554.251	699.19
554.348	725.19
554.446	614.19
554.544	673.19
554.641	1022.19
554.739	659.19
554.837	620.19
554.934	652.19
555.032	681.19
555.129	622.19
555.227	939.19
555.324	1975.19
555.422	737.19
555.519	627.19
555.617	680.19
555.715	567.19
555.812	2439.19
555.91	718.19
556.007	679.19
556.105	571.19
556.202	640.19
556.299	595.19
556.397	566.19
556.494	581.19
556.592	610.19
556.689	660.19
556.787	589.19
556.884	562.19
556.981	568.19
557.079	530.19
557.176	594.19
557.273	620.19
557.371	649.19
557.468	592.19
557.566	646.19
557.663	549.19
557.76	556.19
557.857	576.19
557.955	601.19
558.052	709.19
558.149	718.19
558.247	719.19
558.344	550.19
558.441	531.19
558.538	589.19
558.636	547.19
558.733	596.19
558.83	666.19
558.927	572.19
559.024	619.19
559.122	581.19
559.219	561.19
559.316	658.19
559.413	728.19
559.51	588.19
559.607	523.19
559.704	642.19
559.801	635.19
559.899	524.19
559.996	868.19
560.093	700.19
560.19	526.19
560.287	644.19
560.384	798.19
560.481	572.19
560.578	589.19
560.675	555.19
560.772	654.19
560.869	599.19
560.966	732.19
561.063	615.19
561.16	668.19
561.257	574.19
561.354	648.19
561.451	565.19
561.548	647.19
561.645	808.19
561.742	546.19
561.838	549.19
561.935	592.19
562.032	611.19
562.129	572.19
562.226	580.19
562.323	601.19
562.42	651.19
562.516	576.19
562.613	596.19
562.71	586.19
562.807	1363.19
562.904	639.19
563	559.19
563.097	598.19
563.194	604.19
563.291	601.19
563.387	523.19
563.484	641.19
563.581	631.19
563.678	553.19
563.774	939.19
563.871	687.19
563.968	592.19
564.064	612.19
564.161	577.19
564.258	576.19
564.354	661.19
564.451	658.19
564.548	675.19
564.644	659.19
564.741	620.19
564.837	635.19
564.934	628.19
565.031	641.19
565.127	731.19
565.224	707.19
565.32	806.19
565.417	678.19
565.513	713.19
565.61	779.19
565.706	811.19
565.803	788.19
565.899	783.19
565.996	811.19
566.092	844.19
566.189	781.19
566.285	808.19
566.382	920.19
566.478	969.19
566.574	978.19
566.671	933.19
566.767	921.19
566.864	878.19
566.96	954.19
567.056	991.19
567.153	1229.19
567.249	1049.19
567.345	1179.19
567.442	1207.19
567.538	1152.19
567.634	1160.19
567.731	1064.19
567.827	1106.19
567.923	1216.19
568.019	978.19
568.116	907.19
568.212	887.19
568.308	988.19
568.404	867.19
568.501	807.19
568.597	959.19
568.693	794.19
568.789	1415.19
568.885	806.19
568.982	731.19
569.078	663.19
569.174	746.19
569.27	609.19
569.366	684.19
569.462	621.19
569.558	647.19
569.655	630.19
569.751	540.19
569.847	583.19
569.943	523.19
570.039	471.19
570.135	1058.19
570.231	557.19
570.327	730.19
570.423	692.19
570.519	650.19
570.615	567.19
570.711	650.19
570.807	686.19
570.903	561.19
570.999	586.19
571.095	643.19
571.191	572.19
571.287	637.19
571.383	709.19
571.479	581.19
571.574	669.19
571.67	565.19
571.766	726.19
571.862	533.19
571.958	518.19
572.054	581.19
572.15	487.19
572.246	459.19
572.341	586.19
572.437	496.19
572.533	525.19
572.629	555.19
572.725	496.19
572.82	454.19
572.916	606.19
573.012	478.19
573.108	547.19
573.203	467.19
573.299	478.19
573.395	413.19
573.49	416.19
573.586	431.19
573.682	414.19
573.778	596.19
573.873	459.19
573.969	388.19
574.065	407.19
574.16	473.19
574.256	492.19
574.351	490.19
574.447	408.19
574.543	487.19
574.638	562.19
574.734	501.19
574.829	737.19
574.925	483.19
575.02	432.19
575.116	467.19
575.212	481.19
575.307	559.19
575.403	462.19
575.498	493.19
575.594	418.19
575.689	552.19
575.784	547.19
575.88	472.19
575.975	546.19
576.071	485.19
576.166	368.19
576.262	452.19
576.357	452.19
576.452	616.19
576.548	441.19
576.643	422.19
576.739	438.19
576.834	446.19
576.929	491.19
577.025	1175.19
577.12	417.19
577.215	384.19
577.311	483.19
577.406	509.19
577.501	559.19
577.597	332.19
577.692	566.19
577.787	528.19
577.882	383.19
577.978	461.19
578.073	369.19
578.168	318.19
578.263	403.19
578.358	376.19
578.454	359.19
578.549	404.19
578.644	309.19
578.739	447.19
578.834	374.19
578.929	329.19
579.025	334.19
579.12	417.19
579.215	724.19
579.31	576.19
579.405	353.19
579.5	501.19
579.595	389.19
579.69	306.19
579.785	407.19
579.88	324.19
579.975	314.19
580.07	388.19
580.165	361.19
580.26	438.19
580.355	461.19
580.45	415.19
580.545	325.19
580.64	349.19
580.735	485.19
580.83	387.19
580.925	323.19
581.02	329.19
581.115	336.19
581.21	257.19
581.305	401.19
581.4	392.19
581.495	327.19
581.589	372.19
581.684	364.19
581.779	409.19
581.874	401.19
581.969	515.19
582.064	339.19
582.158	333.19
582.253	341.19
582.348	336.19
582.443	357.19
582.537	411.19
582.632	557.19
582.727	367.19
582.822	317.19
582.916	336.19
583.011	307.19
583.106	388.19
583.201	404.19
583.295	327.19
583.39	271.19
583.485	296.19
583.579	2004.19
583.674	560.19
583.769	610.19
583.863	399.19
583.958	340.19
584.052	247.19
584.147	340.19
584.242	243.19
584.336	329.19
584.431	571.19
584.525	264.19
584.62	451.19
584.714	454.19
584.809	351.19
584.903	308.19
584.998	370.19
585.092	279.19
585.187	326.19
585.281	259.19
585.376	384.19
585.47	334.19
585.565	321.19
585.659	276.19
585.754	279.19
585.848	339.19
585.942	311.19
586.037	255.19
586.131	1614.19
586.226	455.19
586.32	395.19
586.414	208.19
586.509	398.19
586.603	396.19
586.697	308.19
586.792	286.19
586.886	322.19
586.98	383.19
587.075	305.19
587.169	330.19
587.263	533.19
587.357	352.19
587.452	276.19
587.546	441.19
587.64	223.19
587.734	299.19
587.829	388.19
587.923	295.19
588.017	324.19
588.111	359.19
588.205	391.19
588.3	301.19
588.394	322.19
588.488	255.19
588.582	431.19
588.676	514.19
588.77	804.19
588.864	1541.19
588.958	1504.19
589.052	1094.19
589.147	832.19
589.241	609.19
589.335	635.19
589.429	1054.19
589.523	1202.19
589.617	1069.19
589.711	755.19
589.805	531.19
589.899	521.19
589.993	339.19
590.087	274.19
590.181	247.19
590.275	357.19
590.369	294.19
590.462	235.19
590.556	298.19
590.65	240.19
590.744	271.19
590.838	278.19
590.932	270.19
591.026	330.19
591.12	478.19
591.214	335.19
591.307	295.19
591.401	309.19
591.495	408.19
591.589	268.19
591.683	282.19
591.777	409.19
591.87	670.19
591.964	336.19
592.058	294.19
592.152	379.19
592.245	305.19
592.339	422.19
592.433	513.19
592.527	342.19
592.62	262.19
592.714	360.19
592.808	379.19
592.901	345.19
592.995	335.19
593.089	560.19
593.182	439.19
593.276	367.19
593.37	303.19
593.463	287.19
593.557	324.19
593.65	316.19
593.744	339.19
593.837	429.19
593.931	348.19
594.025	3493.19
594.118	683.19
594.212	326.19
594.305	264.19
594.399	343.19
594.492	729.19
594.586	345.19
594.679	322.19
594.773	291.19
594.866	403.19
594.96	254.19
595.053	237.19
595.146	355.19
595.24	248.19
595.333	240.19
595.427	225.19
595.52	207.19
595.614	414.19
595.707	336.19
595.8	260.19
595.894	283.19
595.987	242.19
596.08	219.19
596.174	711.19
596.267	399.19
596.36	427.19
596.454	415.19
596.547	321.19
596.64	275.19
596.733	205.19
596.827	314.19
596.92	279.19
597.013	164.19
597.106	178.19
597.2	144.19
597.293	207.19
597.386	459.19
597.479	274.19
597.572	302.19
597.666	189.19
597.759	239.19
597.852	358.19
597.945	173.19
598.038	199.19
598.131	209.19
598.224	214.19
598.317	297.19
598.411	266.19
598.504	237.19
598.597	290.19
598.69	220.19
598.783	242.19
598.876	230.19
598.969	231.19
599.062	153.19
599.155	281.19
599.248	204.19
599.341	262.19
599.434	212.19
599.527	262.19
599.62	168.19
599.713	221.19
599.806	275.19
599.899	407.19
599.991	216.19
600.084	386.19
600.177	175.19
600.27	211.19
600.363	394.19
600.456	176.19
600.549	245.19
600.642	195.19
600.734	204.19
600.827	225.19
600.92	350.19
601.013	170.19
601.106	335.19
601.199	240.19
601.291	186.19
601.384	196.19
601.477	463.19
601.57	310.19
601.662	177.19
601.755	256.19
601.848	295.19
601.94	196.19
602.033	325.19
602.126	287.19
602.219	200.19
602.311	334.19
602.404	200.19
602.497	195.19
602.589	179.19
602.682	286.19
602.774	274.19
602.867	235.19
602.96	243.19
603.052	244.19
603.145	183.19
603.237	230.19
603.33	253.19
603.422	339.19
603.515	203.19
603.608	284.19
603.7	227.19
603.793	198.19
603.885	236.19
603.978	209.19
604.07	160.19
604.163	208.19
604.255	256.19
604.347	160.19
604.44	154.19
604.532	374.19
604.625	177.19
604.717	154.19
604.81	316.19
604.902	211.19
604.994	144.19
605.087	172.19
605.179	196.19
605.271	203.19
605.364	216.19
605.456	295.19
605.548	189.19
605.641	187.19
605.733	217.19
605.825	199.19
605.918	128.19
606.01	384.19
606.102	690.19
606.194	247.19
606.287	391.19
606.379	227.19
606.471	207.19
606.563	285.19
606.655	311.19
606.748	248.19
606.84	185.19
606.932	310.19
607.024	215.19
607.116	145.19
607.208	236.19
607.301	218.19
607.393	190.19
607.485	191.19
607.577	283.19
607.669	313.19
607.761	269.19
607.853	538.19
607.945	196.19
608.037	118.19
608.129	266.19
608.221	168.19
608.313	143.19
608.405	280.19
608.497	225.19
608.589	139.19
608.681	249.19
608.773	266.19
608.865	238.19
608.957	217.19
609.049	241.19
609.141	272.19
609.233	162.19
609.325	159.19
609.417	151.19
609.509	268.19
609.601	404.19
609.693	292.19
609.784	173.19
609.876	241.19
609.968	249.19
610.06	2521.19
610.152	500.19
610.244	1152.19
610.335	261.19
610.427	206.19
610.519	222.19
610.611	240.19
610.702	205.19
610.794	289.19
610.886	287.19
610.978	237.19
611.069	736.19
611.161	264.19
611.253	281.19
611.344	164.19
611.436	188.19
611.528	242.19
611.62	174.19
611.711	223.19
611.803	171.19
611.894	123.19
611.986	175.19
612.078	167.19
612.169	221.19
612.261	194.19
612.352	118.19
612.444	104.19
612.536	275.19
612.627	217.19
612.719	117.19
612.81	129.19
612.902	136.19
612.993	160.19
613.085	171.19
613.176	100.19
613.268	140.19
613.359	93.19
613.451	140.19
613.542	215.19
613.634	96.19
613.725	156.19
613.816	270.19
613.908	96.19
613.999	92.19
614.091	86.19
614.182	39.19
614.273	115.19
614.365	85.19
614.456	41.19
614.547	47.19
614.639	39.19
614.73	85.19
614.821	125.19
614.913	49.19
615.004	59.19
615.095	-25.81
615.187	22.19
