Data from 21g_HRC06701__102__346.txt Node

Date: Thu Apr 18 02:09:21 CDT 2024
User: Estudiantes 2
Spectrometer: HR+C0670
Trigger mode: 4
Integration Time (sec): 1.000000E0
Scans to average: 1
Electric dark correction enabled: true
Nonlinearity correction enabled: false
Boxcar width: 0
XAxis mode: Wavelengths
Number of Pixels in Spectrum: 2048
>>>>>Begin Spectral Data<<<<<
407.81	-128.88
407.921	-128.88
408.032	-128.88
408.143	-129.88
408.254	-148.88
408.365	21.12
408.476	272.12
408.587	-41.88
408.699	-0.88
408.81	-4.88
408.921	-31.88
409.032	-19.88
409.143	36.12
409.254	39.12
409.365	83.12
409.476	-39.88
409.587	27.12
409.698	68.12
409.809	70.12
409.92	-29.88
410.031	-39.88
410.142	18.12
410.253	41.12
410.364	53.12
410.475	861.12
410.585	4335.12
410.696	4709.12
410.807	4642.12
410.918	4588.12
411.029	4768.12
411.14	4642.12
411.251	4636.12
411.362	4744.12
411.472	4871.12
411.583	4725.12
411.694	4941.12
411.805	4887.12
411.916	4890.12
412.026	4975.12
412.137	4953.12
412.248	4882.12
412.359	4886.12
412.47	4755.12
412.58	4585.12
412.691	4743.12
412.802	4624.12
412.912	4614.12
413.023	4729.12
413.134	4735.12
413.245	4766.12
413.355	4697.12
413.466	4742.12
413.577	4689.12
413.687	4835.12
413.798	4529.12
413.909	4770.12
414.019	4689.12
414.13	4830.12
414.24	4751.12
414.351	4831.12
414.462	4994.12
414.572	4794.12
414.683	4848.12
414.793	4797.12
414.904	5151.12
415.014	4837.12
415.125	4695.12
415.235	4846.12
415.346	4995.12
415.456	4927.12
415.567	4843.12
415.677	4758.12
415.788	4856.12
415.898	4743.12
416.009	4740.12
416.119	4844.12
416.23	4661.12
416.34	4704.12
416.45	4776.12
416.561	5561.12
416.671	4819.12
416.782	4823.12
416.892	4841.12
417.002	4906.12
417.113	5117.12
417.223	4880.12
417.333	4926.12
417.444	4918.12
417.554	5128.12
417.664	5177.12
417.775	4932.12
417.885	5173.12
417.995	5083.12
418.106	5436.12
418.216	5298.12
418.326	5405.12
418.436	5396.12
418.547	5534.12
418.657	5487.12
418.767	5688.12
418.877	5518.12
418.987	5613.12
419.098	5571.12
419.208	5580.12
419.318	5608.12
419.428	5762.12
419.538	5499.12
419.648	5651.12
419.759	5530.12
419.869	5598.12
419.979	5548.12
420.089	5623.12
420.199	5571.12
420.309	5661.12
420.419	5619.12
420.529	5631.12
420.639	5954.12
420.749	5728.12
420.859	5782.12
420.969	5801.12
421.079	6009.12
421.189	5790.12
421.299	5737.12
421.409	5837.12
421.519	5816.12
421.629	5963.12
421.739	5991.12
421.849	5894.12
421.959	5981.12
422.069	5996.12
422.179	6130.12
422.289	6139.12
422.399	6269.12
422.509	6475.12
422.619	8896.12
422.729	6551.12
422.838	6360.12
422.948	6481.12
423.058	6532.12
423.168	6608.12
423.278	6713.12
423.388	6674.12
423.498	6967.12
423.607	6868.12
423.717	7222.12
423.827	7281.12
423.937	7031.12
424.046	7050.12
424.156	7168.12
424.266	7070.12
424.376	7488.12
424.485	7254.12
424.595	7084.12
424.705	7161.12
424.815	7167.12
424.924	7755.12
425.034	7242.12
425.144	7241.12
425.253	7220.12
425.363	7357.12
425.473	7381.12
425.582	7055.12
425.692	7335.12
425.801	7290.12
425.911	7422.12
426.021	7357.12
426.13	7647.12
426.24	7581.12
426.349	7582.12
426.459	7511.12
426.568	7487.12
426.678	7473.12
426.787	7652.12
426.897	7416.12
427.006	7686.12
427.116	7795.12
427.225	7583.12
427.335	7830.12
427.444	7698.12
427.554	7822.12
427.663	7806.12
427.773	7763.12
427.882	7969.12
427.992	7939.12
428.101	8037.12
428.21	7971.12
428.32	8043.12
428.429	7868.12
428.539	8337.12
428.648	8200.12
428.757	8131.12
428.867	8178.12
428.976	8529.12
429.085	8191.12
429.195	8336.12
429.304	8390.12
429.413	8381.12
429.523	8505.12
429.632	8517.12
429.741	8491.12
429.85	8434.12
429.96	8631.12
430.069	8445.12
430.178	8724.12
430.287	8962.12
430.397	8777.12
430.506	8779.12
430.615	8785.12
430.724	9019.12
430.833	8951.12
430.943	8966.12
431.052	9095.12
431.161	9105.12
431.27	9423.12
431.379	9357.12
431.488	9844.12
431.597	9614.12
431.706	9823.12
431.816	9672.12
431.925	9658.12
432.034	9619.12
432.143	9720.12
432.252	9530.12
432.361	9723.12
432.47	9640.12
432.579	9596.12
432.688	9559.12
432.797	9711.12
432.906	9517.12
433.015	9636.12
433.124	10028.12
433.233	9904.12
433.342	9759.12
433.451	9875.12
433.56	9989.12
433.669	9876.12
433.778	9848.12
433.886	10190.12
433.995	10040.12
434.104	10376.12
434.213	10484.12
434.322	10608.12
434.431	10940.12
434.54	11196.12
434.649	11625.12
434.757	11367.12
434.866	11103.12
434.975	11088.12
435.084	10844.12
435.193	10529.12
435.301	10702.12
435.41	10360.12
435.519	10465.12
435.628	9685.12
435.737	9648.12
435.845	9359.12
435.954	9316.12
436.063	9525.12
436.171	9355.12
436.28	9315.12
436.389	9747.12
436.498	9235.12
436.606	9459.12
436.715	9540.12
436.823	9213.12
436.932	9002.12
437.041	8895.12
437.149	8956.12
437.258	8667.12
437.367	8562.12
437.475	8621.12
437.584	8862.12
437.692	8526.12
437.801	10205.12
437.91	8555.12
438.018	8507.12
438.127	8617.12
438.235	8585.12
438.344	8548.12
438.452	8466.12
438.561	8337.12
438.669	8496.12
438.778	8361.12
438.886	8479.12
438.995	8353.12
439.103	8492.12
439.212	8567.12
439.32	8534.12
439.428	8336.12
439.537	8566.12
439.645	8726.12
439.754	8697.12
439.862	8608.12
439.97	8661.12
440.079	8784.12
440.187	8599.12
440.295	8838.12
440.404	8812.12
440.512	8885.12
440.62	9007.12
440.729	8976.12
440.837	9150.12
440.945	10104.12
441.054	9492.12
441.162	9586.12
441.27	9902.12
441.378	10096.12
441.487	10152.12
441.595	10515.12
441.703	10180.12
441.811	9904.12
441.92	9800.12
442.028	9538.12
442.136	9581.12
442.244	9547.12
442.352	9639.12
442.461	9348.12
442.569	9413.12
442.677	9602.12
442.785	9542.12
442.893	9554.12
443.001	9524.12
443.109	9420.12
443.217	9467.12
443.325	9408.12
443.434	10269.12
443.542	9960.12
443.65	9775.12
443.758	10193.12
443.866	10136.12
443.974	10459.12
444.082	10493.12
444.19	10923.12
444.298	10964.12
444.406	11671.12
444.514	11911.12
444.622	11925.12
444.73	11747.12
444.838	11441.12
444.946	11238.12
445.054	10794.12
445.161	10743.12
445.269	10154.12
445.377	10203.12
445.485	10084.12
445.593	9824.12
445.701	9745.12
445.809	9662.12
445.917	9567.12
446.025	9603.12
446.132	9737.12
446.24	9519.12
446.348	9577.12
446.456	9300.12
446.564	9462.12
446.671	9350.12
446.779	9078.12
446.887	9315.12
446.995	9077.12
447.102	9161.12
447.21	9222.12
447.318	9107.12
447.426	8974.12
447.533	9329.12
447.641	10335.12
447.749	9035.12
447.856	9075.12
447.964	9074.12
448.072	9089.12
448.179	9035.12
448.287	9067.12
448.395	9057.12
448.502	8981.12
448.61	9025.12
448.718	8858.12
448.825	9113.12
448.933	9131.12
449.04	9138.12
449.148	9186.12
449.256	9247.12
449.363	9256.12
449.471	9282.12
449.578	9413.12
449.686	9353.12
449.793	9697.12
449.901	9411.12
450.008	9647.12
450.116	9773.12
450.223	9738.12
450.331	9956.12
450.438	10115.12
450.546	10020.12
450.653	10314.12
450.76	10515.12
450.868	10387.12
450.975	10542.12
451.083	10474.12
451.19	10478.12
451.297	10334.12
451.405	10563.12
451.512	10536.12
451.619	10663.12
451.727	10764.12
451.834	10694.12
451.941	10619.12
452.049	10602.12
452.156	10703.12
452.263	10926.12
452.371	10842.12
452.478	10984.12
452.585	11060.12
452.692	10753.12
452.8	10956.12
452.907	11185.12
453.014	10987.12
453.121	11161.12
453.229	11205.12
453.336	11163.12
453.443	11271.12
453.55	11325.12
453.657	11012.12
453.765	11536.12
453.872	11521.12
453.979	11476.12
454.086	11696.12
454.193	11625.12
454.3	11425.12
454.407	11610.12
454.514	11858.12
454.621	11695.12
454.729	11559.12
454.836	11662.12
454.943	11860.12
455.05	11771.12
455.157	12110.12
455.264	11766.12
455.371	12179.12
455.478	12173.12
455.585	13586.12
455.692	12285.12
455.799	12359.12
455.906	12216.12
456.013	12273.12
456.12	12335.12
456.227	12292.12
456.334	12743.12
456.44	12737.12
456.547	12717.12
456.654	12629.12
456.761	12655.12
456.868	12913.12
456.975	12947.12
457.082	12932.12
457.189	12840.12
457.296	12945.12
457.402	13169.12
457.509	13107.12
457.616	13231.12
457.723	13849.12
457.83	13595.12
457.936	13732.12
458.043	14201.12
458.15	13899.12
458.257	14172.12
458.363	14456.12
458.47	14564.12
458.577	14564.12
458.684	14564.12
458.79	14564.12
458.897	14564.12
459.004	14564.12
459.11	14564.12
459.217	14564.12
459.324	14564.12
459.43	14564.12
459.537	14564.12
459.644	14564.12
459.75	14564.12
459.857	14564.12
459.964	14564.12
460.07	14564.12
460.177	14564.12
460.283	14564.12
460.39	14564.12
460.496	14564.12
460.603	14564.12
460.71	14564.12
460.816	14564.12
460.923	14564.12
461.029	14564.12
461.136	14564.12
461.242	14564.12
461.349	14564.12
461.455	14564.12
461.562	14564.12
461.668	14564.12
461.774	14564.12
461.881	14564.12
461.987	14564.12
462.094	14564.12
462.2	14564.12
462.307	14564.12
462.413	14564.12
462.519	14564.12
462.626	14564.12
462.732	14564.12
462.838	14564.12
462.945	14564.12
463.051	14564.12
463.157	14564.12
463.264	14564.12
463.37	14564.12
463.476	14564.12
463.583	14564.12
463.689	14564.12
463.795	14564.12
463.901	14564.12
464.008	14564.12
464.114	14564.12
464.22	14564.12
464.326	14564.12
464.433	14564.12
464.539	14564.12
464.645	14564.12
464.751	14564.12
464.857	14564.12
464.963	14564.12
465.07	14564.12
465.176	14564.12
465.282	14564.12
465.388	14564.12
465.494	14564.12
465.6	14564.12
465.706	14564.12
465.812	14564.12
465.918	14564.12
466.024	14564.12
466.131	14526.12
466.237	14155.12
466.343	14048.12
466.449	13750.12
466.555	13617.12
466.661	13212.12
466.767	13269.12
466.873	13189.12
466.979	13305.12
467.085	13232.12
467.191	13219.12
467.296	13188.12
467.402	12998.12
467.508	12871.12
467.614	12862.12
467.72	12460.12
467.826	12349.12
467.932	12263.12
468.038	12113.12
468.144	12127.12
468.25	11964.12
468.355	11905.12
468.461	11957.12
468.567	11888.12
468.673	11853.12
468.779	11697.12
468.885	11729.12
468.99	11723.12
469.096	11751.12
469.202	12071.12
469.308	11985.12
469.413	12201.12
469.519	12188.12
469.625	12206.12
469.731	12392.12
469.836	12496.12
469.942	12489.12
470.048	12558.12
470.153	12541.12
470.259	12551.12
470.365	12555.12
470.47	12667.12
470.576	12248.12
470.682	12236.12
470.787	12088.12
470.893	11834.12
470.999	11695.12
471.104	11479.12
471.21	11373.12
471.315	11115.12
471.421	11076.12
471.527	11313.12
471.632	11001.12
471.738	10709.12
471.843	10709.12
471.949	10525.12
472.054	10438.12
472.16	10419.12
472.265	10349.12
472.371	10265.12
472.476	10278.12
472.582	10295.12
472.687	10154.12
472.793	10002.12
472.898	10097.12
473.003	9938.12
473.109	9898.12
473.214	9846.12
473.32	9943.12
473.425	9838.12
473.53	9849.12
473.636	9712.12
473.741	9643.12
473.847	9698.12
473.952	9710.12
474.057	9622.12
474.163	9728.12
474.268	9793.12
474.373	9703.12
474.478	9754.12
474.584	9703.12
474.689	9674.12
474.794	9648.12
474.9	10041.12
475.005	9615.12
475.11	9908.12
475.215	9680.12
475.321	9721.12
475.426	9987.12
475.531	9802.12
475.636	9817.12
475.741	9748.12
475.846	10132.12
475.952	10237.12
476.057	9948.12
476.162	10088.12
476.267	10254.12
476.372	10451.12
476.477	10090.12
476.582	10216.12
476.687	10256.12
476.793	10358.12
476.898	10361.12
477.003	10560.12
477.108	10464.12
477.213	10538.12
477.318	10691.12
477.423	10881.12
477.528	11114.12
477.633	11247.12
477.738	11425.12
477.843	11183.12
477.948	11439.12
478.053	11562.12
478.158	11648.12
478.263	11783.12
478.368	11919.12
478.473	12168.12
478.578	12335.12
478.682	12298.12
478.787	12308.12
478.892	12166.12
478.997	12457.12
479.102	12399.12
479.207	12262.12
479.312	12546.12
479.417	12510.12
479.521	12375.12
479.626	12575.12
479.731	12770.12
479.836	12945.12
479.941	13144.12
480.045	13539.12
480.15	13539.12
480.255	13694.12
480.36	13852.12
480.465	13597.12
480.569	13632.12
480.674	13224.12
480.779	12972.12
480.883	13068.12
480.988	13047.12
481.093	12855.12
481.197	12606.12
481.302	12626.12
481.407	12675.12
481.511	14006.12
481.616	12676.12
481.721	12444.12
481.825	12710.12
481.93	12539.12
482.035	12694.12
482.139	12598.12
482.244	12579.12
482.348	12809.12
482.453	12938.12
482.557	13041.12
482.662	12745.12
482.767	12930.12
482.871	12938.12
482.976	13045.12
483.08	13123.12
483.185	13454.12
483.289	13492.12
483.394	13537.12
483.498	13700.12
483.603	13540.12
483.707	13876.12
483.811	13896.12
483.916	14111.12
484.02	14030.12
484.125	14315.12
484.229	14283.12
484.333	14564.12
484.438	14564.12
484.542	14564.12
484.647	14564.12
484.751	14564.12
484.855	14564.12
484.96	14564.12
485.064	14564.12
485.168	14564.12
485.273	14564.12
485.377	14564.12
485.481	14564.12
485.585	14564.12
485.69	14564.12
485.794	14564.12
485.898	14564.12
486.002	14564.12
486.107	14564.12
486.211	14564.12
486.315	14564.12
486.419	14564.12
486.524	14564.12
486.628	14564.12
486.732	14564.12
486.836	14564.12
486.94	14564.12
487.044	14564.12
487.148	14564.12
487.253	14564.12
487.357	14564.12
487.461	14564.12
487.565	14564.12
487.669	14564.12
487.773	14564.12
487.877	14564.12
487.981	14564.12
488.085	14564.12
488.189	14564.12
488.293	14564.12
488.397	14564.12
488.501	14564.12
488.605	14564.12
488.709	14564.12
488.813	14564.12
488.917	14564.12
489.021	14564.12
489.125	14564.12
489.229	14564.12
489.333	14564.12
489.437	14564.12
489.541	14564.12
489.645	14564.12
489.749	14564.12
489.853	14564.12
489.956	14564.12
490.06	14564.12
490.164	14564.12
490.268	14564.12
490.372	14564.12
490.476	14564.12
490.579	14564.12
490.683	14564.12
490.787	14564.12
490.891	14564.12
490.995	14564.12
491.098	14564.12
491.202	14564.12
491.306	14564.12
491.41	14564.12
491.513	14564.12
491.617	14564.12
491.721	14564.12
491.824	14564.12
491.928	14564.12
492.032	14564.12
492.136	14564.12
492.239	14564.12
492.343	14564.12
492.446	14564.12
492.55	14564.12
492.654	14564.12
492.757	14564.12
492.861	14564.12
492.965	14564.12
493.068	14564.12
493.172	14564.12
493.275	14564.12
493.379	14564.12
493.482	14564.12
493.586	14564.12
493.689	14564.12
493.793	14564.12
493.896	14564.12
494	14564.12
494.103	14564.12
494.207	14564.12
494.31	14564.12
494.414	14564.12
494.517	14564.12
494.621	14564.12
494.724	14564.12
494.828	14564.12
494.931	14564.12
495.034	14564.12
495.138	14564.12
495.241	14564.12
495.345	14564.12
495.448	14564.12
495.551	14564.12
495.655	14564.12
495.758	14564.12
495.861	14564.12
495.965	14564.12
496.068	14564.12
496.171	14564.12
496.274	14564.12
496.378	14564.12
496.481	14564.12
496.584	14564.12
496.687	14564.12
496.791	14564.12
496.894	14564.12
496.997	14564.12
497.1	14564.12
497.204	14564.12
497.307	14564.12
497.41	14564.12
497.513	14564.12
497.616	14564.12
497.719	14564.12
497.823	14564.12
497.926	14564.12
498.029	14564.12
498.132	14564.12
498.235	14564.12
498.338	14564.12
498.441	14564.12
498.544	14564.12
498.647	14564.12
498.75	14564.12
498.853	14564.12
498.956	14564.12
499.059	14564.12
499.163	14564.12
499.266	14564.12
499.369	14564.12
499.471	14564.12
499.574	14564.12
499.677	14564.12
499.78	14564.12
499.883	14564.12
499.986	14564.12
500.089	14564.12
500.192	14564.12
500.295	14564.12
500.398	14564.12
500.501	14564.12
500.604	14564.12
500.707	14564.12
500.809	14564.12
500.912	14564.12
501.015	14564.12
501.118	14564.12
501.221	14564.12
501.324	14564.12
501.426	14564.12
501.529	14564.12
501.632	14564.12
501.735	14564.12
501.837	14564.12
501.94	14564.12
502.043	14564.12
502.146	14564.12
502.248	14564.12
502.351	14564.12
502.454	14564.12
502.557	14564.12
502.659	14564.12
502.762	14564.12
502.865	14564.12
502.967	14564.12
503.07	14564.12
503.173	14564.12
503.275	14564.12
503.378	14564.12
503.48	14564.12
503.583	14564.12
503.686	14564.12
503.788	14564.12
503.891	14564.12
503.993	14564.12
504.096	14564.12
504.198	14564.12
504.301	14564.12
504.403	14564.12
504.506	14564.12
504.608	14564.12
504.711	14564.12
504.813	14502.12
504.916	14039.12
505.018	13547.12
505.121	13264.12
505.223	13208.12
505.326	12920.12
505.428	12858.12
505.531	12614.12
505.633	12554.12
505.735	12330.12
505.838	12073.12
505.94	11996.12
506.042	11953.12
506.145	11746.12
506.247	11679.12
506.35	11613.12
506.452	11654.12
506.554	11692.12
506.656	11538.12
506.759	11354.12
506.861	11511.12
506.963	11351.12
507.066	11395.12
507.168	11363.12
507.27	11233.12
507.372	11084.12
507.475	11058.12
507.577	11037.12
507.679	10943.12
507.781	10699.12
507.883	10891.12
507.986	10815.12
508.088	10710.12
508.19	10644.12
508.292	10707.12
508.394	10605.12
508.496	10588.12
508.598	10626.12
508.701	10636.12
508.803	10558.12
508.905	10331.12
509.007	10414.12
509.109	10457.12
509.211	10497.12
509.313	10445.12
509.415	10089.12
509.517	10291.12
509.619	10290.12
509.721	10364.12
509.823	10246.12
509.925	10444.12
510.027	10159.12
510.129	10177.12
510.231	10143.12
510.333	10187.12
510.435	10178.12
510.537	10270.12
510.639	10339.12
510.741	10115.12
510.843	10159.12
510.945	10089.12
511.047	10126.12
511.148	10181.12
511.25	10158.12
511.352	10119.12
511.454	10045.12
511.556	10279.12
511.658	10321.12
511.76	10311.12
511.861	10431.12
511.963	10221.12
512.065	10136.12
512.167	10150.12
512.268	10431.12
512.37	10210.12
512.472	10383.12
512.574	10292.12
512.676	10345.12
512.777	10164.12
512.879	10227.12
512.981	10283.12
513.082	10300.12
513.184	10270.12
513.286	11032.12
513.387	10422.12
513.489	10652.12
513.591	10587.12
513.692	10544.12
513.794	10557.12
513.896	10438.12
513.997	10518.12
514.099	10493.12
514.2	10710.12
514.302	10796.12
514.404	10716.12
514.505	10795.12
514.607	11123.12
514.708	10798.12
514.81	11032.12
514.911	11226.12
515.013	11295.12
515.114	11209.12
515.216	11215.12
515.317	11555.12
515.419	11425.12
515.52	11861.12
515.622	11849.12
515.723	11936.12
515.825	12327.12
515.926	12220.12
516.027	12161.12
516.129	12584.12
516.23	12696.12
516.332	12877.12
516.433	13210.12
516.534	13423.12
516.636	13672.12
516.737	13864.12
516.838	14564.12
516.94	14564.12
517.041	14564.12
517.142	14564.12
517.244	14564.12
517.345	14564.12
517.446	14564.12
517.547	14564.12
517.649	14564.12
517.75	14564.12
517.851	14564.12
517.952	14564.12
518.054	14564.12
518.155	14564.12
518.256	14564.12
518.357	14564.12
518.458	14564.12
518.56	14407.12
518.661	14008.12
518.762	13872.12
518.863	13985.12
518.964	13604.12
519.065	13272.12
519.166	13175.12
519.268	12905.12
519.369	13213.12
519.47	12898.12
519.571	12920.12
519.672	12500.12
519.773	12528.12
519.874	12505.12
519.975	12490.12
520.076	12406.12
520.177	12378.12
520.278	12414.12
520.379	12206.12
520.48	12097.12
520.581	11998.12
520.682	12031.12
520.783	12053.12
520.884	12186.12
520.985	11937.12
521.086	11947.12
521.187	12060.12
521.288	11943.12
521.389	11961.12
521.489	11939.12
521.59	11673.12
521.691	11705.12
521.792	11951.12
521.893	11958.12
521.994	11982.12
522.095	11857.12
522.195	11911.12
522.296	11882.12
522.397	11817.12
522.498	11853.12
522.599	11656.12
522.699	11726.12
522.8	11752.12
522.901	11786.12
523.002	11663.12
523.102	11919.12
523.203	11746.12
523.304	11856.12
523.405	11904.12
523.505	11805.12
523.606	11817.12
523.707	11839.12
523.807	11844.12
523.908	11887.12
524.009	11851.12
524.109	11802.12
524.21	11720.12
524.31	11867.12
524.411	11993.12
524.512	11961.12
524.612	11807.12
524.713	12011.12
524.813	11822.12
524.914	12107.12
525.014	14564.12
525.115	12181.12
525.216	11771.12
525.316	11844.12
525.417	11922.12
525.517	11766.12
525.618	11797.12
525.718	11719.12
525.819	11936.12
525.919	11968.12
526.019	11779.12
526.12	12039.12
526.22	11786.12
526.321	11845.12
526.421	11847.12
526.522	11857.12
526.622	11729.12
526.722	11889.12
526.823	11916.12
526.923	12095.12
527.023	12025.12
527.124	11913.12
527.224	11970.12
527.324	11783.12
527.425	11860.12
527.525	11811.12
527.625	11877.12
527.726	12020.12
527.826	12074.12
527.926	11987.12
528.026	11937.12
528.127	11900.12
528.227	11922.12
528.327	12114.12
528.427	11965.12
528.528	12040.12
528.628	11849.12
528.728	11989.12
528.828	11991.12
528.928	11919.12
529.029	11947.12
529.129	11926.12
529.229	11878.12
529.329	11851.12
529.429	11902.12
529.529	12023.12
529.629	11936.12
529.729	11819.12
529.829	11881.12
529.93	11716.12
530.03	11834.12
530.13	11772.12
530.23	11754.12
530.33	11866.12
530.43	11849.12
530.53	11809.12
530.63	11791.12
530.73	11667.12
530.83	11698.12
530.93	11560.12
531.03	11628.12
531.13	11746.12
531.23	11773.12
531.33	11745.12
531.429	11742.12
531.529	11863.12
531.629	11764.12
531.729	11439.12
531.829	11596.12
531.929	11657.12
532.029	11555.12
532.129	11478.12
532.229	11650.12
532.328	11530.12
532.428	11453.12
532.528	11395.12
532.628	11320.12
532.728	11386.12
532.827	11356.12
532.927	11273.12
533.027	11270.12
533.127	11463.12
533.227	11364.12
533.326	11211.12
533.426	11006.12
533.526	11294.12
533.625	11307.12
533.725	11343.12
533.825	11209.12
533.924	11089.12
534.024	10804.12
534.124	10937.12
534.223	10929.12
534.323	11263.12
534.423	10959.12
534.522	10782.12
534.622	10835.12
534.722	10758.12
534.821	10682.12
534.921	10689.12
535.02	10504.12
535.12	10650.12
535.219	10719.12
535.319	10762.12
535.419	10596.12
535.518	10498.12
535.618	10374.12
535.717	10442.12
535.817	10337.12
535.916	9933.12
536.016	10111.12
536.115	10023.12
536.215	10028.12
536.314	9938.12
536.413	9852.12
536.513	9976.12
536.612	9915.12
536.712	9824.12
536.811	9728.12
536.91	9772.12
537.01	9771.12
537.109	9737.12
537.209	9650.12
537.308	9665.12
537.407	9588.12
537.507	9676.12
537.606	9510.12
537.705	9581.12
537.805	9416.12
537.904	9436.12
538.003	9390.12
538.102	9655.12
538.202	9330.12
538.301	9572.12
538.4	9372.12
538.499	9280.12
538.599	9294.12
538.698	9475.12
538.797	9235.12
538.896	9329.12
538.995	9278.12
539.095	9161.12
539.194	9271.12
539.293	9079.12
539.392	9133.12
539.491	9092.12
539.59	9005.12
539.689	9226.12
539.789	9083.12
539.888	8754.12
539.987	8859.12
540.086	8927.12
540.185	8754.12
540.284	8860.12
540.383	8789.12
540.482	8733.12
540.581	8776.12
540.68	8834.12
540.779	8734.12
540.878	8654.12
540.977	8766.12
541.076	8758.12
541.175	8608.12
541.274	8875.12
541.373	8696.12
541.472	8661.12
541.571	8422.12
541.67	9947.12
541.769	8583.12
541.868	8427.12
541.966	8543.12
542.065	8555.12
542.164	8494.12
542.263	8342.12
542.362	8487.12
542.461	8378.12
542.56	8310.12
542.658	8491.12
542.757	8332.12
542.856	8387.12
542.955	8403.12
543.054	8220.12
543.152	8503.12
543.251	8308.12
543.35	8407.12
543.449	8341.12
543.547	8400.12
543.646	8304.12
543.745	8378.12
543.843	8376.12
543.942	8317.12
544.041	8264.12
544.14	8464.12
544.238	8312.12
544.337	8568.12
544.436	8557.12
544.534	8568.12
544.633	8450.12
544.731	8492.12
544.83	8581.12
544.929	8425.12
545.027	8481.12
545.126	8564.12
545.224	8499.12
545.323	8617.12
545.421	8659.12
545.52	8700.12
545.619	8600.12
545.717	8528.12
545.816	8674.12
545.914	8536.12
546.013	8703.12
546.111	8755.12
546.209	8558.12
546.308	8502.12
546.406	8451.12
546.505	8702.12
546.603	8476.12
546.702	8414.12
546.8	8376.12
546.899	8283.12
546.997	8420.12
547.095	8437.12
547.194	8396.12
547.292	8368.12
547.39	8633.12
547.489	8441.12
547.587	8764.12
547.685	8454.12
547.784	8760.12
547.882	8491.12
547.98	8523.12
548.079	8587.12
548.177	8428.12
548.275	8480.12
548.373	8797.12
548.472	8450.12
548.57	8412.12
548.668	8652.12
548.766	8508.12
548.864	8611.12
548.963	8646.12
549.061	8792.12
549.159	8590.12
549.257	8654.12
549.355	8707.12
549.454	8706.12
549.552	8696.12
549.65	8818.12
549.748	8576.12
549.846	8660.12
549.944	8563.12
550.042	8458.12
550.14	8524.12
550.238	8504.12
550.336	8402.12
550.434	8256.12
550.532	8264.12
550.631	8394.12
550.729	8365.12
550.827	8404.12
550.925	8385.12
551.023	8280.12
551.121	8242.12
551.218	8430.12
551.316	8301.12
551.414	8389.12
551.512	8313.12
551.61	8522.12
551.708	8503.12
551.806	8539.12
551.904	8579.12
552.002	8696.12
552.1	8852.12
552.198	8741.12
552.296	8963.12
552.393	9135.12
552.491	9341.12
552.589	9286.12
552.687	9410.12
552.785	9455.12
552.882	9760.12
552.98	9870.12
553.078	9727.12
553.176	9844.12
553.274	9576.12
553.371	9667.12
553.469	9437.12
553.567	9506.12
553.665	9266.12
553.762	9761.12
553.86	9208.12
553.958	9267.12
554.055	8984.12
554.153	9039.12
554.251	8840.12
554.348	8842.12
554.446	8698.12
554.544	8730.12
554.641	8986.12
554.739	8420.12
554.837	8477.12
554.934	8507.12
555.032	8401.12
555.129	8285.12
555.227	8459.12
555.324	11706.12
555.422	8370.12
555.519	8065.12
555.617	8106.12
555.715	7930.12
555.812	8384.12
555.91	7913.12
556.007	8002.12
556.105	7792.12
556.202	7830.12
556.299	7821.12
556.397	7826.12
556.494	7763.12
556.592	7736.12
556.689	7856.12
556.787	7696.12
556.884	7533.12
556.981	7716.12
557.079	7636.12
557.176	7777.12
557.273	7821.12
557.371	7730.12
557.468	7644.12
557.566	7792.12
557.663	7675.12
557.76	7699.12
557.857	7578.12
557.955	7713.12
558.052	7635.12
558.149	7842.12
558.247	7898.12
558.344	7668.12
558.441	7584.12
558.538	7683.12
558.636	7691.12
558.733	7611.12
558.83	7715.12
558.927	7685.12
559.024	7615.12
559.122	7678.12
559.219	7683.12
559.316	7774.12
559.413	7922.12
559.51	7724.12
559.607	7730.12
559.704	7874.12
559.801	7848.12
559.899	7770.12
559.996	7992.12
560.093	7757.12
560.19	7610.12
560.287	7830.12
560.384	7925.12
560.481	7865.12
560.578	7764.12
560.675	7792.12
560.772	7986.12
560.869	7886.12
560.966	7922.12
561.063	7835.12
561.16	8043.12
561.257	7941.12
561.354	7880.12
561.451	7950.12
561.548	8005.12
561.645	8201.12
561.742	8067.12
561.838	7931.12
561.935	8147.12
562.032	8119.12
562.129	8050.12
562.226	8135.12
562.323	8154.12
562.42	8255.12
562.516	8172.12
562.613	8178.12
562.71	8337.12
562.807	9027.12
562.904	8317.12
563	8402.12
563.097	8267.12
563.194	8287.12
563.291	8413.12
563.387	8512.12
563.484	8649.12
563.581	8551.12
563.678	8530.12
563.774	9047.12
563.871	8862.12
563.968	8801.12
564.064	8770.12
564.161	8906.12
564.258	8944.12
564.354	9019.12
564.451	9161.12
564.548	9328.12
564.644	9303.12
564.741	9430.12
564.837	9604.12
564.934	9710.12
565.031	9827.12
565.127	10026.12
565.224	10255.12
565.32	10443.12
565.417	10449.12
565.513	10808.12
565.61	10999.12
565.706	11341.12
565.803	11622.12
565.899	11795.12
565.996	12227.12
566.092	12571.12
566.189	12979.12
566.285	13610.12
566.382	14031.12
566.478	14497.12
566.574	14564.12
566.671	14564.12
566.767	14564.12
566.864	14564.12
566.96	14564.12
567.056	14564.12
567.153	14564.12
567.249	14564.12
567.345	14564.12
567.442	14564.12
567.538	14564.12
567.634	14564.12
567.731	14564.12
567.827	14564.12
567.923	14564.12
568.019	14564.12
568.116	14564.12
568.212	14564.12
568.308	14564.12
568.404	14017.12
568.501	13510.12
568.597	13298.12
568.693	12706.12
568.789	12970.12
568.885	11908.12
568.982	11401.12
569.078	11158.12
569.174	11010.12
569.27	10560.12
569.366	10483.12
569.462	10259.12
569.558	10152.12
569.655	9997.12
569.751	9710.12
569.847	9713.12
569.943	9691.12
570.039	9451.12
570.135	10022.12
570.231	9515.12
570.327	9578.12
570.423	9489.12
570.519	9549.12
570.615	9416.12
570.711	9536.12
570.807	9557.12
570.903	9451.12
570.999	9481.12
571.095	9410.12
571.191	9110.12
571.287	9004.12
571.383	9009.12
571.479	8704.12
571.574	8614.12
571.67	8494.12
571.766	8666.12
571.862	8077.12
571.958	8212.12
572.054	8248.12
572.15	7874.12
572.246	7883.12
572.341	8143.12
572.437	7906.12
572.533	7932.12
572.629	7721.12
572.725	7688.12
572.82	7700.12
572.916	7802.12
573.012	7743.12
573.108	7692.12
573.203	7517.12
573.299	7541.12
573.395	7440.12
573.49	7331.12
573.586	7430.12
573.682	7402.12
573.778	7447.12
573.873	7339.12
573.969	7304.12
574.065	7216.12
574.16	7280.12
574.256	7300.12
574.351	7305.12
574.447	7181.12
574.543	7198.12
574.638	7284.12
574.734	7222.12
574.829	7332.12
574.925	7208.12
575.02	6994.12
575.116	7102.12
575.212	6938.12
575.307	7067.12
575.403	6849.12
575.498	6801.12
575.594	6766.12
575.689	6747.12
575.784	6851.12
575.88	6763.12
575.975	6719.12
576.071	6642.12
576.166	6579.12
576.262	6651.12
576.357	6537.12
576.452	6779.12
576.548	6624.12
576.643	6546.12
576.739	6558.12
576.834	6443.12
576.929	6494.12
577.025	6759.12
577.12	6344.12
577.215	6369.12
577.311	6515.12
577.406	6405.12
577.501	6361.12
577.597	6197.12
577.692	6337.12
577.787	6291.12
577.882	6121.12
577.978	6233.12
578.073	6030.12
578.168	6038.12
578.263	6017.12
578.358	5944.12
578.454	5879.12
578.549	5935.12
578.644	5914.12
578.739	5960.12
578.834	5877.12
578.929	5779.12
579.025	5752.12
579.12	5898.12
579.215	6047.12
579.31	5979.12
579.405	5728.12
579.5	5903.12
579.595	5683.12
579.69	5686.12
579.785	5564.12
579.88	5469.12
579.975	5648.12
580.07	5640.12
580.165	5566.12
580.26	5663.12
580.355	5525.12
580.45	5510.12
580.545	5371.12
580.64	5483.12
580.735	5559.12
580.83	5409.12
580.925	5291.12
581.02	5333.12
581.115	5287.12
581.21	5116.12
581.305	5367.12
581.4	5233.12
581.495	5248.12
581.589	5240.12
581.684	5161.12
581.779	5253.12
581.874	5174.12
581.969	5326.12
582.064	5161.12
582.158	5116.12
582.253	5099.12
582.348	5067.12
582.443	5032.12
582.537	5045.12
582.632	5257.12
582.727	5054.12
582.822	5144.12
582.916	5020.12
583.011	4960.12
583.106	4962.12
583.201	4953.12
583.295	4983.12
583.39	4822.12
583.485	4907.12
583.579	6623.12
583.674	5000.12
583.769	5195.12
583.863	4859.12
583.958	4786.12
584.052	4694.12
584.147	4807.12
584.242	4693.12
584.336	4775.12
584.431	5001.12
584.525	4646.12
584.62	5014.12
584.714	4902.12
584.809	4752.12
584.903	4765.12
584.998	4711.12
585.092	4552.12
585.187	4785.12
585.281	4729.12
585.376	4752.12
585.47	4722.12
585.565	4660.12
585.659	4727.12
585.754	4602.12
585.848	4614.12
585.942	4588.12
586.037	4597.12
586.131	5891.12
586.226	4676.12
586.32	4684.12
586.414	4489.12
586.509	4778.12
586.603	4674.12
586.697	4639.12
586.792	4543.12
586.886	4542.12
586.98	4608.12
587.075	4530.12
587.169	4487.12
587.263	4738.12
587.357	4425.12
587.452	4456.12
587.546	4587.12
587.64	4398.12
587.734	4504.12
587.829	4498.12
587.923	4396.12
588.017	4570.12
588.111	4554.12
588.205	4651.12
588.3	4537.12
588.394	4627.12
588.488	4653.12
588.582	4959.12
588.676	5446.12
588.77	7472.12
588.864	13794.12
588.958	13642.12
589.052	10319.12
589.147	7151.12
589.241	5905.12
589.335	5928.12
589.429	9505.12
589.523	11219.12
589.617	9376.12
589.711	6741.12
589.805	5419.12
589.899	5146.12
589.993	4637.12
590.087	4493.12
590.181	4553.12
590.275	4525.12
590.369	4405.12
590.462	4323.12
590.556	4452.12
590.65	4402.12
590.744	4393.12
590.838	4373.12
590.932	4351.12
591.026	4419.12
591.12	4674.12
591.214	4437.12
591.307	4425.12
591.401	4511.12
591.495	4568.12
591.589	4430.12
591.683	4556.12
591.777	4712.12
591.87	4945.12
591.964	4705.12
592.058	4732.12
592.152	4841.12
592.245	4647.12
592.339	5043.12
592.433	5023.12
592.527	5055.12
592.62	5137.12
592.714	5164.12
592.808	5241.12
592.901	5276.12
592.995	5307.12
593.089	5461.12
593.182	5334.12
593.276	5293.12
593.37	5282.12
593.463	5306.12
593.557	5452.12
593.65	5363.12
593.744	5338.12
593.837	5516.12
593.931	5359.12
594.025	9035.12
594.118	5602.12
594.212	5366.12
594.305	5161.12
594.399	5205.12
594.492	5529.12
594.586	4990.12
594.679	4735.12
594.773	4747.12
594.866	4774.12
594.96	4642.12
595.053	4565.12
595.146	4462.12
595.24	4386.12
595.333	4280.12
595.427	4264.12
595.52	4168.12
595.614	4361.12
595.707	4176.12
595.8	4051.12
595.894	4057.12
595.987	3989.12
596.08	3847.12
596.174	4164.12
596.267	3926.12
596.36	3905.12
596.454	3929.12
596.547	3810.12
596.64	3568.12
596.733	3574.12
596.827	3780.12
596.92	3679.12
597.013	3510.12
597.106	3581.12
597.2	3569.12
597.293	3460.12
597.386	3690.12
597.479	3581.12
597.572	3645.12
597.666	3449.12
597.759	3446.12
597.852	3582.12
597.945	3400.12
598.038	3402.12
598.131	3507.12
598.224	3386.12
598.317	3395.12
598.411	3422.12
598.504	3476.12
598.597	3460.12
598.69	3341.12
598.783	3279.12
598.876	3360.12
598.969	3332.12
599.062	3290.12
599.155	3425.12
599.248	3266.12
599.341	3369.12
599.434	3175.12
599.527	3282.12
599.62	3241.12
599.713	3182.12
599.806	3329.12
599.899	3450.12
599.991	3221.12
600.084	3463.12
600.177	3189.12
600.27	3219.12
600.363	3423.12
600.456	3233.12
600.549	3264.12
600.642	3144.12
600.734	3176.12
600.827	3217.12
600.92	3373.12
601.013	3224.12
601.106	3267.12
601.199	3180.12
601.291	3103.12
601.384	3149.12
601.477	3333.12
601.57	3303.12
601.662	3114.12
601.755	3140.12
601.848	3070.12
601.94	3040.12
602.033	3366.12
602.126	3133.12
602.219	3015.12
602.311	3260.12
602.404	3077.12
602.497	3002.12
602.589	2999.12
602.682	3168.12
602.774	3024.12
602.867	3087.12
602.96	3159.12
603.052	3015.12
603.145	3010.12
603.237	3063.12
603.33	3076.12
603.422	3120.12
603.515	2978.12
603.608	3105.12
603.7	3034.12
603.793	2998.12
603.885	3032.12
603.978	2924.12
604.07	2960.12
604.163	3007.12
604.255	2920.12
604.347	2901.12
604.44	2931.12
604.532	2990.12
604.625	2915.12
604.717	2932.12
604.81	3015.12
604.902	2884.12
604.994	2851.12
605.087	2895.12
605.179	2881.12
605.271	2965.12
605.364	2946.12
605.456	2997.12
605.548	2983.12
605.641	2997.12
605.733	2890.12
605.825	2845.12
605.918	2837.12
606.01	3065.12
606.102	3287.12
606.194	2919.12
606.287	3056.12
606.379	2831.12
606.471	2788.12
606.563	2946.12
606.655	2926.12
606.748	2986.12
606.84	2915.12
606.932	2881.12
607.024	2812.12
607.116	2837.12
607.208	2852.12
607.301	2841.12
607.393	2827.12
607.485	2896.12
607.577	2940.12
607.669	2989.12
607.761	2989.12
607.853	3074.12
607.945	2758.12
608.037	2692.12
608.129	2765.12
608.221	2803.12
608.313	2833.12
608.405	2906.12
608.497	2779.12
608.589	2752.12
608.681	2806.12
608.773	2850.12
608.865	2818.12
608.957	2875.12
609.049	2708.12
609.141	2948.12
609.233	2810.12
609.325	2768.12
609.417	2731.12
609.509	2893.12
609.601	2914.12
609.693	2896.12
609.784	2781.12
609.876	2872.12
609.968	2875.12
610.06	5142.12
610.152	3018.12
610.244	3654.12
610.335	2803.12
610.427	2746.12
610.519	2777.12
610.611	2794.12
610.702	2760.12
610.794	2716.12
610.886	2733.12
610.978	2621.12
611.069	3148.12
611.161	2642.12
611.253	2633.12
611.344	2564.12
611.436	2410.12
611.528	2570.12
611.62	2403.12
611.711	2423.12
611.803	2312.12
611.894	2343.12
611.986	2311.12
612.078	2312.12
612.169	2302.12
612.261	2263.12
612.352	2157.12
612.444	2159.12
612.536	2311.12
612.627	2140.12
612.719	2051.12
612.81	2049.12
612.902	2041.12
612.993	2011.12
613.085	1994.12
613.176	1835.12
613.268	1927.12
613.359	1842.12
613.451	1842.12
613.542	1811.12
613.634	1766.12
613.725	1831.12
613.816	1838.12
613.908	1635.12
613.999	1664.12
614.091	1554.12
614.182	1522.12
614.273	1663.12
614.365	1547.12
614.456	1385.12
614.547	1424.12
614.639	1382.12
614.73	1307.12
614.821	1465.12
614.913	1280.12
615.004	1186.12
615.095	1194.12
615.187	1216.12
