Data from 21g_HRC06701__105__349.txt Node

Date: Thu Apr 18 02:09:24 CDT 2024
User: Estudiantes 2
Spectrometer: HR+C0670
Trigger mode: 4
Integration Time (sec): 1.000000E0
Scans to average: 1
Electric dark correction enabled: true
Nonlinearity correction enabled: false
Boxcar width: 0
XAxis mode: Wavelengths
Number of Pixels in Spectrum: 2048
>>>>>Begin Spectral Data<<<<<
407.81	-146.38
407.921	-146.38
408.032	-146.38
408.143	-130.38
408.254	-116.38
408.365	22.62
408.476	239.62
408.587	12.62
408.699	-7.38
408.81	-9.38
408.921	-7.38
409.032	-47.38
409.143	22.62
409.254	33.62
409.365	67.62
409.476	-46.38
409.587	-4.38
409.698	116.62
409.809	74.62
409.92	-35.38
410.031	25.62
410.142	49.62
410.253	16.62
410.364	49.62
410.475	1341.62
410.585	6570.62
410.696	7131.62
410.807	6847.62
410.918	6829.62
411.029	6976.62
411.14	7167.62
411.251	7131.62
411.362	7176.62
411.472	7355.62
411.583	7139.62
411.694	7400.62
411.805	7382.62
411.916	7434.62
412.026	7448.62
412.137	7446.62
412.248	7384.62
412.359	7270.62
412.47	7075.62
412.58	7059.62
412.691	7214.62
412.802	7027.62
412.912	7116.62
413.023	7043.62
413.134	7044.62
413.245	7288.62
413.355	7069.62
413.466	7190.62
413.577	7097.62
413.687	7226.62
413.798	6829.62
413.909	7233.62
414.019	7218.62
414.13	7267.62
414.24	7290.62
414.351	7356.62
414.462	7567.62
414.572	7231.62
414.683	7312.62
414.793	7299.62
414.904	7610.62
415.014	7268.62
415.125	7276.62
415.235	7191.62
415.346	7427.62
415.456	7466.62
415.567	7263.62
415.677	7221.62
415.788	7301.62
415.898	7202.62
416.009	7217.62
416.119	7383.62
416.23	7353.62
416.34	7180.62
416.45	7272.62
416.561	8108.62
416.671	7203.62
416.782	7335.62
416.892	7534.62
417.002	7393.62
417.113	7574.62
417.223	7384.62
417.333	7504.62
417.444	7648.62
417.554	7754.62
417.664	7777.62
417.775	7614.62
417.885	7818.62
417.995	7936.62
418.106	8157.62
418.216	7998.62
418.326	8176.62
418.436	8280.62
418.547	8390.62
418.657	8365.62
418.767	8572.62
418.877	8567.62
418.987	8576.62
419.098	8682.62
419.208	8615.62
419.318	8524.62
419.428	8647.62
419.538	8430.62
419.648	8614.62
419.759	8565.62
419.869	8393.62
419.979	8438.62
420.089	8563.62
420.199	8417.62
420.309	8540.62
420.419	8499.62
420.529	8575.62
420.639	9024.62
420.749	8647.62
420.859	8817.62
420.969	8763.62
421.079	9036.62
421.189	8710.62
421.299	8558.62
421.409	8751.62
421.519	8939.62
421.629	9102.62
421.739	9023.62
421.849	9165.62
421.959	9234.62
422.069	9225.62
422.179	9413.62
422.289	9522.62
422.399	9608.62
422.509	9658.62
422.619	12240.62
422.729	9874.62
422.838	9843.62
422.948	10015.62
423.058	10047.62
423.168	10081.62
423.278	10241.62
423.388	10306.62
423.498	10821.62
423.607	10490.62
423.717	10940.62
423.827	10914.62
423.937	10753.62
424.046	10872.62
424.156	11078.62
424.266	10665.62
424.376	11195.62
424.485	10873.62
424.595	10925.62
424.705	11015.62
424.815	10943.62
424.924	11609.62
425.034	11037.62
425.144	11018.62
425.253	10916.62
425.363	11171.62
425.473	11243.62
425.582	10918.62
425.692	11135.62
425.801	11167.62
425.911	11411.62
426.021	11307.62
426.13	11553.62
426.24	11467.62
426.349	11416.62
426.459	11373.62
426.568	11376.62
426.678	11638.62
426.787	11628.62
426.897	11543.62
427.006	11638.62
427.116	11821.62
427.225	11825.62
427.335	11974.62
427.444	11728.62
427.554	11755.62
427.663	12032.62
427.773	11822.62
427.882	12044.62
427.992	12008.62
428.101	12224.62
428.21	12249.62
428.32	12445.62
428.429	12270.62
428.539	12679.62
428.648	12596.62
428.757	12302.62
428.867	12650.62
428.976	12969.62
429.085	12699.62
429.195	12841.62
429.304	12621.62
429.413	12881.62
429.523	13038.62
429.632	12954.62
429.741	12870.62
429.85	12948.62
429.96	13303.62
430.069	13216.62
430.178	13275.62
430.287	13565.62
430.397	13357.62
430.506	13445.62
430.615	13547.62
430.724	13564.62
430.833	13617.62
430.943	13689.62
431.052	13751.62
431.161	14086.62
431.27	14071.62
431.379	14347.62
431.488	14564.62
431.597	14564.62
431.706	14564.62
431.816	14564.62
431.925	14564.62
432.034	14564.62
432.143	14564.62
432.252	14564.62
432.361	14564.62
432.47	14564.62
432.579	14564.62
432.688	14564.62
432.797	14564.62
432.906	14564.62
433.015	14564.62
433.124	14564.62
433.233	14564.62
433.342	14564.62
433.451	14564.62
433.56	14564.62
433.669	14564.62
433.778	14564.62
433.886	14564.62
433.995	14564.62
434.104	14564.62
434.213	14564.62
434.322	14564.62
434.431	14564.62
434.54	14564.62
434.649	14564.62
434.757	14564.62
434.866	14564.62
434.975	14564.62
435.084	14564.62
435.193	14564.62
435.301	14564.62
435.41	14564.62
435.519	14564.62
435.628	14564.62
435.737	14564.62
435.845	14415.62
435.954	14344.62
436.063	14368.62
436.171	14418.62
436.28	14243.62
436.389	14564.62
436.498	14206.62
436.606	14412.62
436.715	14397.62
436.823	14183.62
436.932	13784.62
437.041	13863.62
437.149	13738.62
437.258	13352.62
437.367	13141.62
437.475	13556.62
437.584	13594.62
437.692	13151.62
437.801	14564.62
437.91	13329.62
438.018	12982.62
438.127	12975.62
438.235	13207.62
438.344	13178.62
438.452	12945.62
438.561	13037.62
438.669	13032.62
438.778	12703.62
438.886	13014.62
438.995	12761.62
439.103	13042.62
439.212	13133.62
439.32	13211.62
439.428	12950.62
439.537	13187.62
439.645	13451.62
439.754	13405.62
439.862	13099.62
439.97	13303.62
440.079	13542.62
440.187	13239.62
440.295	13652.62
440.404	13572.62
440.512	13641.62
440.62	13790.62
440.729	13862.62
440.837	14085.62
440.945	14564.62
441.054	14564.62
441.162	14564.62
441.27	14564.62
441.378	14564.62
441.487	14564.62
441.595	14564.62
441.703	14564.62
441.811	14564.62
441.92	14564.62
442.028	14564.62
442.136	14564.62
442.244	14526.62
442.352	14535.62
442.461	14457.62
442.569	14509.62
442.677	14564.62
442.785	14564.62
442.893	14433.62
443.001	14417.62
443.109	14564.62
443.217	14564.62
443.325	14564.62
443.434	14564.62
443.542	14564.62
443.65	14564.62
443.758	14564.62
443.866	14564.62
443.974	14564.62
444.082	14564.62
444.19	14564.62
444.298	14564.62
444.406	14564.62
444.514	14564.62
444.622	14564.62
444.73	14564.62
444.838	14564.62
444.946	14564.62
445.054	14564.62
445.161	14564.62
445.269	14564.62
445.377	14564.62
445.485	14564.62
445.593	14564.62
445.701	14564.62
445.809	14564.62
445.917	14564.62
446.025	14564.62
446.132	14564.62
446.24	14564.62
446.348	14564.62
446.456	14165.62
446.564	14504.62
446.671	14499.62
446.779	14261.62
446.887	14266.62
446.995	14222.62
447.102	14219.62
447.21	14019.62
447.318	14042.62
447.426	13929.62
447.533	14132.62
447.641	14564.62
447.749	13934.62
447.856	13962.62
447.964	14006.62
448.072	13983.62
448.179	13785.62
448.287	13959.62
448.395	14022.62
448.502	13792.62
448.61	13984.62
448.718	13929.62
448.825	13843.62
448.933	13987.62
449.04	13955.62
449.148	14206.62
449.256	14178.62
449.363	14226.62
449.471	14459.62
449.578	14447.62
449.686	14482.62
449.793	14564.62
449.901	14564.62
450.008	14564.62
450.116	14564.62
450.223	14564.62
450.331	14564.62
450.438	14564.62
450.546	14564.62
450.653	14564.62
450.76	14564.62
450.868	14564.62
450.975	14564.62
451.083	14564.62
451.19	14564.62
451.297	14564.62
451.405	14564.62
451.512	14564.62
451.619	14564.62
451.727	14564.62
451.834	14564.62
451.941	14564.62
452.049	14564.62
452.156	14564.62
452.263	14564.62
452.371	14564.62
452.478	14564.62
452.585	14564.62
452.692	14564.62
452.8	14564.62
452.907	14564.62
453.014	14564.62
453.121	14564.62
453.229	14564.62
453.336	14564.62
453.443	14564.62
453.55	14564.62
453.657	14564.62
453.765	14564.62
453.872	14564.62
453.979	14564.62
454.086	14564.62
454.193	14564.62
454.3	14564.62
454.407	14564.62
454.514	14564.62
454.621	14564.62
454.729	14564.62
454.836	14564.62
454.943	14564.62
455.05	14564.62
455.157	14564.62
455.264	14564.62
455.371	14564.62
455.478	14564.62
455.585	14564.62
455.692	14564.62
455.799	14564.62
455.906	14564.62
456.013	14564.62
456.12	14564.62
456.227	14564.62
456.334	14564.62
456.44	14564.62
456.547	14564.62
456.654	14564.62
456.761	14564.62
456.868	14564.62
456.975	14564.62
457.082	14564.62
457.189	14564.62
457.296	14564.62
457.402	14564.62
457.509	14564.62
457.616	14564.62
457.723	14564.62
457.83	14564.62
457.936	14564.62
458.043	14564.62
458.15	14564.62
458.257	14564.62
458.363	14564.62
458.47	14564.62
458.577	14564.62
458.684	14564.62
458.79	14564.62
458.897	14564.62
459.004	14564.62
459.11	14564.62
459.217	14564.62
459.324	14564.62
459.43	14564.62
459.537	14564.62
459.644	14564.62
459.75	14564.62
459.857	14564.62
459.964	14564.62
460.07	14564.62
460.177	14564.62
460.283	14564.62
460.39	14564.62
460.496	14564.62
460.603	14564.62
460.71	14564.62
460.816	14564.62
460.923	14564.62
461.029	14564.62
461.136	14564.62
461.242	14564.62
461.349	14564.62
461.455	14564.62
461.562	14564.62
461.668	14564.62
461.774	14564.62
461.881	14564.62
461.987	14564.62
462.094	14564.62
462.2	14564.62
462.307	14564.62
462.413	14564.62
462.519	14564.62
462.626	14564.62
462.732	14564.62
462.838	14564.62
462.945	14564.62
463.051	14564.62
463.157	14564.62
463.264	14564.62
463.37	14564.62
463.476	14564.62
463.583	14564.62
463.689	14564.62
463.795	14564.62
463.901	14564.62
464.008	14564.62
464.114	14564.62
464.22	14564.62
464.326	14564.62
464.433	14564.62
464.539	14564.62
464.645	14564.62
464.751	14564.62
464.857	14564.62
464.963	14564.62
465.07	14564.62
465.176	14564.62
465.282	14564.62
465.388	14564.62
465.494	14564.62
465.6	14564.62
465.706	14564.62
465.812	14564.62
465.918	14564.62
466.024	14564.62
466.131	14564.62
466.237	14564.62
466.343	14564.62
466.449	14564.62
466.555	14564.62
466.661	14564.62
466.767	14564.62
466.873	14564.62
466.979	14564.62
467.085	14564.62
467.191	14564.62
467.296	14564.62
467.402	14564.62
467.508	14564.62
467.614	14564.62
467.72	14564.62
467.826	14564.62
467.932	14564.62
468.038	14564.62
468.144	14564.62
468.25	14564.62
468.355	14564.62
468.461	14564.62
468.567	14564.62
468.673	14564.62
468.779	14564.62
468.885	14564.62
468.99	14564.62
469.096	14564.62
469.202	14564.62
469.308	14564.62
469.413	14564.62
469.519	14564.62
469.625	14564.62
469.731	14564.62
469.836	14564.62
469.942	14564.62
470.048	14564.62
470.153	14564.62
470.259	14564.62
470.365	14564.62
470.47	14564.62
470.576	14564.62
470.682	14564.62
470.787	14564.62
470.893	14564.62
470.999	14564.62
471.104	14564.62
471.21	14564.62
471.315	14564.62
471.421	14564.62
471.527	14564.62
471.632	14564.62
471.738	14564.62
471.843	14564.62
471.949	14564.62
472.054	14564.62
472.16	14564.62
472.265	14564.62
472.371	14564.62
472.476	14564.62
472.582	14564.62
472.687	14564.62
472.793	14564.62
472.898	14564.62
473.003	14564.62
473.109	14564.62
473.214	14564.62
473.32	14564.62
473.425	14564.62
473.53	14564.62
473.636	14564.62
473.741	14564.62
473.847	14564.62
473.952	14564.62
474.057	14564.62
474.163	14564.62
474.268	14564.62
474.373	14564.62
474.478	14564.62
474.584	14564.62
474.689	14564.62
474.794	14564.62
474.9	14564.62
475.005	14564.62
475.11	14564.62
475.215	14564.62
475.321	14564.62
475.426	14564.62
475.531	14564.62
475.636	14564.62
475.741	14564.62
475.846	14564.62
475.952	14564.62
476.057	14564.62
476.162	14564.62
476.267	14564.62
476.372	14564.62
476.477	14564.62
476.582	14564.62
476.687	14564.62
476.793	14564.62
476.898	14564.62
477.003	14564.62
477.108	14564.62
477.213	14564.62
477.318	14564.62
477.423	14564.62
477.528	14564.62
477.633	14564.62
477.738	14564.62
477.843	14564.62
477.948	14564.62
478.053	14564.62
478.158	14564.62
478.263	14564.62
478.368	14564.62
478.473	14564.62
478.578	14564.62
478.682	14564.62
478.787	14564.62
478.892	14564.62
478.997	14564.62
479.102	14564.62
479.207	14564.62
479.312	14564.62
479.417	14564.62
479.521	14564.62
479.626	14564.62
479.731	14564.62
479.836	14564.62
479.941	14564.62
480.045	14564.62
480.15	14564.62
480.255	14564.62
480.36	14564.62
480.465	14564.62
480.569	14564.62
480.674	14564.62
480.779	14564.62
480.883	14564.62
480.988	14564.62
481.093	14564.62
481.197	14564.62
481.302	14564.62
481.407	14564.62
481.511	14564.62
481.616	14564.62
481.721	14564.62
481.825	14564.62
481.93	14564.62
482.035	14564.62
482.139	14564.62
482.244	14564.62
482.348	14564.62
482.453	14564.62
482.557	14564.62
482.662	14564.62
482.767	14564.62
482.871	14564.62
482.976	14564.62
483.08	14564.62
483.185	14564.62
483.289	14564.62
483.394	14564.62
483.498	14564.62
483.603	14564.62
483.707	14564.62
483.811	14564.62
483.916	14564.62
484.02	14564.62
484.125	14564.62
484.229	14564.62
484.333	14564.62
484.438	14564.62
484.542	14564.62
484.647	14564.62
484.751	14564.62
484.855	14564.62
484.96	14564.62
485.064	14564.62
485.168	14564.62
485.273	14564.62
485.377	14564.62
485.481	14564.62
485.585	14564.62
485.69	14564.62
485.794	14564.62
485.898	14564.62
486.002	14564.62
486.107	14564.62
486.211	14564.62
486.315	14564.62
486.419	14564.62
486.524	14564.62
486.628	14564.62
486.732	14564.62
486.836	14564.62
486.94	14564.62
487.044	14564.62
487.148	14564.62
487.253	14564.62
487.357	14564.62
487.461	14564.62
487.565	14564.62
487.669	14564.62
487.773	14564.62
487.877	14564.62
487.981	14564.62
488.085	14564.62
488.189	14564.62
488.293	14564.62
488.397	14564.62
488.501	14564.62
488.605	14564.62
488.709	14564.62
488.813	14564.62
488.917	14564.62
489.021	14564.62
489.125	14564.62
489.229	14564.62
489.333	14564.62
489.437	14564.62
489.541	14564.62
489.645	14564.62
489.749	14564.62
489.853	14564.62
489.956	14564.62
490.06	14564.62
490.164	14564.62
490.268	14564.62
490.372	14564.62
490.476	14564.62
490.579	14564.62
490.683	14564.62
490.787	14564.62
490.891	14564.62
490.995	14564.62
491.098	14564.62
491.202	14564.62
491.306	14564.62
491.41	14564.62
491.513	14564.62
491.617	14564.62
491.721	14564.62
491.824	14564.62
491.928	14564.62
492.032	14564.62
492.136	14564.62
492.239	14564.62
492.343	14564.62
492.446	14564.62
492.55	14564.62
492.654	14564.62
492.757	14564.62
492.861	14564.62
492.965	14564.62
493.068	14564.62
493.172	14564.62
493.275	14564.62
493.379	14564.62
493.482	14564.62
493.586	14564.62
493.689	14564.62
493.793	14564.62
493.896	14564.62
494	14564.62
494.103	14564.62
494.207	14564.62
494.31	14564.62
494.414	14564.62
494.517	14564.62
494.621	14564.62
494.724	14564.62
494.828	14564.62
494.931	14564.62
495.034	14564.62
495.138	14564.62
495.241	14564.62
495.345	14564.62
495.448	14564.62
495.551	14564.62
495.655	14564.62
495.758	14564.62
495.861	14564.62
495.965	14564.62
496.068	14564.62
496.171	14564.62
496.274	14564.62
496.378	14564.62
496.481	14564.62
496.584	14564.62
496.687	14564.62
496.791	14564.62
496.894	14564.62
496.997	14564.62
497.1	14564.62
497.204	14564.62
497.307	14564.62
497.41	14564.62
497.513	14564.62
497.616	14564.62
497.719	14564.62
497.823	14564.62
497.926	14564.62
498.029	14564.62
498.132	14564.62
498.235	14564.62
498.338	14564.62
498.441	14564.62
498.544	14564.62
498.647	14564.62
498.75	14564.62
498.853	14564.62
498.956	14564.62
499.059	14564.62
499.163	14564.62
499.266	14564.62
499.369	14564.62
499.471	14564.62
499.574	14564.62
499.677	14564.62
499.78	14564.62
499.883	14564.62
499.986	14564.62
500.089	14564.62
500.192	14564.62
500.295	14564.62
500.398	14564.62
500.501	14564.62
500.604	14564.62
500.707	14564.62
500.809	14564.62
500.912	14564.62
501.015	14564.62
501.118	14564.62
501.221	14564.62
501.324	14564.62
501.426	14564.62
501.529	14564.62
501.632	14564.62
501.735	14564.62
501.837	14564.62
501.94	14564.62
502.043	14564.62
502.146	14564.62
502.248	14564.62
502.351	14564.62
502.454	14564.62
502.557	14564.62
502.659	14564.62
502.762	14564.62
502.865	14564.62
502.967	14564.62
503.07	14564.62
503.173	14564.62
503.275	14564.62
503.378	14564.62
503.48	14564.62
503.583	14564.62
503.686	14564.62
503.788	14564.62
503.891	14564.62
503.993	14564.62
504.096	14564.62
504.198	14564.62
504.301	14564.62
504.403	14564.62
504.506	14564.62
504.608	14564.62
504.711	14564.62
504.813	14564.62
504.916	14564.62
505.018	14564.62
505.121	14564.62
505.223	14564.62
505.326	14564.62
505.428	14564.62
505.531	14564.62
505.633	14564.62
505.735	14564.62
505.838	14564.62
505.94	14564.62
506.042	14564.62
506.145	14564.62
506.247	14564.62
506.35	14564.62
506.452	14564.62
506.554	14564.62
506.656	14564.62
506.759	14564.62
506.861	14564.62
506.963	14564.62
507.066	14564.62
507.168	14564.62
507.27	14564.62
507.372	14564.62
507.475	14564.62
507.577	14564.62
507.679	14564.62
507.781	14564.62
507.883	14564.62
507.986	14564.62
508.088	14564.62
508.19	14564.62
508.292	14564.62
508.394	14564.62
508.496	14564.62
508.598	14564.62
508.701	14564.62
508.803	14564.62
508.905	14564.62
509.007	14564.62
509.109	14564.62
509.211	14564.62
509.313	14564.62
509.415	14564.62
509.517	14564.62
509.619	14564.62
509.721	14564.62
509.823	14564.62
509.925	14564.62
510.027	14564.62
510.129	14564.62
510.231	14564.62
510.333	14564.62
510.435	14564.62
510.537	14564.62
510.639	14564.62
510.741	14564.62
510.843	14564.62
510.945	14564.62
511.047	14564.62
511.148	14564.62
511.25	14564.62
511.352	14564.62
511.454	14564.62
511.556	14564.62
511.658	14564.62
511.76	14564.62
511.861	14564.62
511.963	14564.62
512.065	14564.62
512.167	14564.62
512.268	14564.62
512.37	14564.62
512.472	14564.62
512.574	14564.62
512.676	14564.62
512.777	14564.62
512.879	14564.62
512.981	14564.62
513.082	14564.62
513.184	14564.62
513.286	14564.62
513.387	14564.62
513.489	14564.62
513.591	14564.62
513.692	14564.62
513.794	14564.62
513.896	14564.62
513.997	14564.62
514.099	14564.62
514.2	14564.62
514.302	14564.62
514.404	14564.62
514.505	14564.62
514.607	14564.62
514.708	14564.62
514.81	14564.62
514.911	14564.62
515.013	14564.62
515.114	14564.62
515.216	14564.62
515.317	14564.62
515.419	14564.62
515.52	14564.62
515.622	14564.62
515.723	14564.62
515.825	14564.62
515.926	14564.62
516.027	14564.62
516.129	14564.62
516.23	14564.62
516.332	14564.62
516.433	14564.62
516.534	14564.62
516.636	14564.62
516.737	14564.62
516.838	14564.62
516.94	14564.62
517.041	14564.62
517.142	14564.62
517.244	14564.62
517.345	14564.62
517.446	14564.62
517.547	14564.62
517.649	14564.62
517.75	14564.62
517.851	14564.62
517.952	14564.62
518.054	14564.62
518.155	14564.62
518.256	14564.62
518.357	14564.62
518.458	14564.62
518.56	14564.62
518.661	14564.62
518.762	14564.62
518.863	14564.62
518.964	14564.62
519.065	14564.62
519.166	14564.62
519.268	14564.62
519.369	14564.62
519.47	14564.62
519.571	14564.62
519.672	14564.62
519.773	14564.62
519.874	14564.62
519.975	14564.62
520.076	14564.62
520.177	14564.62
520.278	14564.62
520.379	14564.62
520.48	14564.62
520.581	14564.62
520.682	14564.62
520.783	14564.62
520.884	14564.62
520.985	14564.62
521.086	14564.62
521.187	14564.62
521.288	14564.62
521.389	14564.62
521.489	14564.62
521.59	14564.62
521.691	14564.62
521.792	14564.62
521.893	14564.62
521.994	14564.62
522.095	14564.62
522.195	14564.62
522.296	14564.62
522.397	14564.62
522.498	14564.62
522.599	14564.62
522.699	14564.62
522.8	14564.62
522.901	14564.62
523.002	14564.62
523.102	14564.62
523.203	14564.62
523.304	14564.62
523.405	14564.62
523.505	14564.62
523.606	14564.62
523.707	14564.62
523.807	14564.62
523.908	14564.62
524.009	14564.62
524.109	14564.62
524.21	14564.62
524.31	14564.62
524.411	14564.62
524.512	14564.62
524.612	14564.62
524.713	14564.62
524.813	14564.62
524.914	14564.62
525.014	14564.62
525.115	14564.62
525.216	14564.62
525.316	14564.62
525.417	14564.62
525.517	14564.62
525.618	14564.62
525.718	14564.62
525.819	14564.62
525.919	14564.62
526.019	14564.62
526.12	14564.62
526.22	14564.62
526.321	14564.62
526.421	14564.62
526.522	14564.62
526.622	14564.62
526.722	14564.62
526.823	14564.62
526.923	14564.62
527.023	14564.62
527.124	14564.62
527.224	14564.62
527.324	14564.62
527.425	14564.62
527.525	14564.62
527.625	14564.62
527.726	14564.62
527.826	14564.62
527.926	14564.62
528.026	14564.62
528.127	14564.62
528.227	14564.62
528.327	14564.62
528.427	14564.62
528.528	14564.62
528.628	14564.62
528.728	14564.62
528.828	14564.62
528.928	14564.62
529.029	14564.62
529.129	14564.62
529.229	14564.62
529.329	14564.62
529.429	14564.62
529.529	14564.62
529.629	14564.62
529.729	14564.62
529.829	14564.62
529.93	14564.62
530.03	14564.62
530.13	14564.62
530.23	14564.62
530.33	14564.62
530.43	14564.62
530.53	14564.62
530.63	14564.62
530.73	14564.62
530.83	14564.62
530.93	14564.62
531.03	14564.62
531.13	14564.62
531.23	14564.62
531.33	14564.62
531.429	14564.62
531.529	14564.62
531.629	14564.62
531.729	14564.62
531.829	14564.62
531.929	14564.62
532.029	14564.62
532.129	14564.62
532.229	14564.62
532.328	14564.62
532.428	14564.62
532.528	14564.62
532.628	14564.62
532.728	14564.62
532.827	14564.62
532.927	14564.62
533.027	14564.62
533.127	14564.62
533.227	14564.62
533.326	14564.62
533.426	14564.62
533.526	14564.62
533.625	14564.62
533.725	14564.62
533.825	14564.62
533.924	14564.62
534.024	14564.62
534.124	14564.62
534.223	14564.62
534.323	14564.62
534.423	14564.62
534.522	14564.62
534.622	14564.62
534.722	14564.62
534.821	14564.62
534.921	14564.62
535.02	14564.62
535.12	14564.62
535.219	14564.62
535.319	14564.62
535.419	14564.62
535.518	14564.62
535.618	14564.62
535.717	14564.62
535.817	14564.62
535.916	14564.62
536.016	14564.62
536.115	14564.62
536.215	14564.62
536.314	14564.62
536.413	14564.62
536.513	14564.62
536.612	14564.62
536.712	14564.62
536.811	14564.62
536.91	14564.62
537.01	14564.62
537.109	14564.62
537.209	14564.62
537.308	14564.62
537.407	14564.62
537.507	14564.62
537.606	14564.62
537.705	14564.62
537.805	14564.62
537.904	14564.62
538.003	14564.62
538.102	14564.62
538.202	14564.62
538.301	14564.62
538.4	14564.62
538.499	14564.62
538.599	14564.62
538.698	14564.62
538.797	14564.62
538.896	14564.62
538.995	14564.62
539.095	14564.62
539.194	14564.62
539.293	14564.62
539.392	14564.62
539.491	14564.62
539.59	14564.62
539.689	14564.62
539.789	14564.62
539.888	14396.62
539.987	14238.62
540.086	14379.62
540.185	14348.62
540.284	14303.62
540.383	14199.62
540.482	14074.62
540.581	14220.62
540.68	14163.62
540.779	14246.62
540.878	13974.62
540.977	14225.62
541.076	14036.62
541.175	14092.62
541.274	14193.62
541.373	14003.62
541.472	13934.62
541.571	13866.62
541.67	14564.62
541.769	14026.62
541.868	13872.62
541.966	14005.62
542.065	13827.62
542.164	13795.62
542.263	13493.62
542.362	13751.62
542.461	13723.62
542.56	13534.62
542.658	13762.62
542.757	13478.62
542.856	13303.62
542.955	13661.62
543.054	13423.62
543.152	13629.62
543.251	13575.62
543.35	13665.62
543.449	13625.62
543.547	13376.62
543.646	13593.62
543.745	13487.62
543.843	13593.62
543.942	13680.62
544.041	13503.62
544.14	13365.62
544.238	13494.62
544.337	13947.62
544.436	13746.62
544.534	13840.62
544.633	13688.62
544.731	13759.62
544.83	13705.62
544.929	13811.62
545.027	13874.62
545.126	13850.62
545.224	13959.62
545.323	13842.62
545.421	13938.62
545.52	13701.62
545.619	13791.62
545.717	13682.62
545.816	13670.62
545.914	13835.62
546.013	13872.62
546.111	14045.62
546.209	13725.62
546.308	13761.62
546.406	13590.62
546.505	13902.62
546.603	13685.62
546.702	13546.62
546.8	13547.62
546.899	13519.62
546.997	13793.62
547.095	13585.62
547.194	13611.62
547.292	13610.62
547.39	13842.62
547.489	13684.62
547.587	14022.62
547.685	13815.62
547.784	14193.62
547.882	13842.62
547.98	13852.62
548.079	13774.62
548.177	13724.62
548.275	13662.62
548.373	14033.62
548.472	13771.62
548.57	13645.62
548.668	14042.62
548.766	13798.62
548.864	13875.62
548.963	13899.62
549.061	14173.62
549.159	14013.62
549.257	14219.62
549.355	14182.62
549.454	14007.62
549.552	14195.62
549.65	14090.62
549.748	14146.62
549.846	13978.62
549.944	13929.62
550.042	13998.62
550.14	13719.62
550.238	13745.62
550.336	13632.62
550.434	13462.62
550.532	13520.62
550.631	13756.62
550.729	13654.62
550.827	13613.62
550.925	13642.62
551.023	13656.62
551.121	13429.62
551.218	13644.62
551.316	13426.62
551.414	13613.62
551.512	13437.62
551.61	13845.62
551.708	13884.62
551.806	13865.62
551.904	13965.62
552.002	14154.62
552.1	14245.62
552.198	14265.62
552.296	14564.62
552.393	14564.62
552.491	14564.62
552.589	14564.62
552.687	14564.62
552.785	14564.62
552.882	14564.62
552.98	14564.62
553.078	14564.62
553.176	14564.62
553.274	14564.62
553.371	14564.62
553.469	14564.62
553.567	14564.62
553.665	14564.62
553.762	14564.62
553.86	14564.62
553.958	14564.62
554.055	14564.62
554.153	14525.62
554.251	14297.62
554.348	14227.62
554.446	14104.62
554.544	14106.62
554.641	14337.62
554.739	13825.62
554.837	13860.62
554.934	13743.62
555.032	13550.62
555.129	13480.62
555.227	13669.62
555.324	14564.62
555.422	13451.62
555.519	13114.62
555.617	12913.62
555.715	12936.62
555.812	13454.62
555.91	12980.62
556.007	12832.62
556.105	12795.62
556.202	13003.62
556.299	12634.62
556.397	12865.62
556.494	12573.62
556.592	12623.62
556.689	12788.62
556.787	12544.62
556.884	12438.62
556.981	12484.62
557.079	12509.62
557.176	12671.62
557.273	12513.62
557.371	12555.62
557.468	12445.62
557.566	12556.62
557.663	12367.62
557.76	12433.62
557.857	12483.62
557.955	12443.62
558.052	12552.62
558.149	12542.62
558.247	12576.62
558.344	12472.62
558.441	12303.62
558.538	12362.62
558.636	12472.62
558.733	12566.62
558.83	12655.62
558.927	12446.62
559.024	12506.62
559.122	12480.62
559.219	12645.62
559.316	12640.62
559.413	12690.62
559.51	12588.62
559.607	12526.62
559.704	12616.62
559.801	12643.62
559.899	12688.62
559.996	12825.62
560.093	12670.62
560.19	12611.62
560.287	12826.62
560.384	12865.62
560.481	12734.62
560.578	12690.62
560.675	12709.62
560.772	12760.62
560.869	12839.62
560.966	12962.62
561.063	12842.62
561.16	13045.62
561.257	13003.62
561.354	12943.62
561.451	12962.62
561.548	12967.62
561.645	13030.62
561.742	12973.62
561.838	12975.62
561.935	13101.62
562.032	13076.62
562.129	13145.62
562.226	13166.62
562.323	13037.62
562.42	13396.62
562.516	13170.62
562.613	13155.62
562.71	13448.62
562.807	14193.62
562.904	13470.62
563	13587.62
563.097	13668.62
563.194	13570.62
563.291	13784.62
563.387	13937.62
563.484	13962.62
563.581	13909.62
563.678	13974.62
563.774	14528.62
563.871	14326.62
563.968	14440.62
564.064	14451.62
564.161	14517.62
564.258	14564.62
564.354	14564.62
564.451	14564.62
564.548	14564.62
564.644	14564.62
564.741	14564.62
564.837	14564.62
564.934	14564.62
565.031	14564.62
565.127	14564.62
565.224	14564.62
565.32	14564.62
565.417	14564.62
565.513	14564.62
565.61	14564.62
565.706	14564.62
565.803	14564.62
565.899	14564.62
565.996	14564.62
566.092	14564.62
566.189	14564.62
566.285	14564.62
566.382	14564.62
566.478	14564.62
566.574	14564.62
566.671	14564.62
566.767	14564.62
566.864	14564.62
566.96	14564.62
567.056	14564.62
567.153	14564.62
567.249	14564.62
567.345	14564.62
567.442	14564.62
567.538	14564.62
567.634	14564.62
567.731	14564.62
567.827	14564.62
567.923	14564.62
568.019	14564.62
568.116	14564.62
568.212	14564.62
568.308	14564.62
568.404	14564.62
568.501	14564.62
568.597	14564.62
568.693	14564.62
568.789	14564.62
568.885	14564.62
568.982	14564.62
569.078	14564.62
569.174	14564.62
569.27	14564.62
569.366	14564.62
569.462	14564.62
569.558	14564.62
569.655	14564.62
569.751	14564.62
569.847	14564.62
569.943	14564.62
570.039	14564.62
570.135	14564.62
570.231	14564.62
570.327	14564.62
570.423	14564.62
570.519	14564.62
570.615	14564.62
570.711	14564.62
570.807	14564.62
570.903	14564.62
570.999	14564.62
571.095	14564.62
571.191	14564.62
571.287	14564.62
571.383	14564.62
571.479	14384.62
571.574	14265.62
571.67	14008.62
571.766	14098.62
571.862	13550.62
571.958	13371.62
572.054	13454.62
572.15	13176.62
572.246	12987.62
572.341	12989.62
572.437	12869.62
572.533	12910.62
572.629	12754.62
572.725	12754.62
572.82	12629.62
572.916	12722.62
573.012	12628.62
573.108	12625.62
573.203	12303.62
573.299	12307.62
573.395	12287.62
573.49	12068.62
573.586	12130.62
573.682	12083.62
573.778	12278.62
573.873	12097.62
573.969	12019.62
574.065	11828.62
574.16	11949.62
574.256	12038.62
574.351	12106.62
574.447	11877.62
574.543	11821.62
574.638	12082.62
574.734	11935.62
574.829	12032.62
574.925	11900.62
575.02	11626.62
575.116	11570.62
575.212	11548.62
575.307	11488.62
575.403	11313.62
575.498	11401.62
575.594	11158.62
575.689	11220.62
575.784	11047.62
575.88	11190.62
575.975	11021.62
576.071	11016.62
576.166	10844.62
576.262	10829.62
576.357	10940.62
576.452	11270.62
576.548	10768.62
576.643	10691.62
576.739	10890.62
576.834	10657.62
576.929	10741.62
577.025	10835.62
577.12	10441.62
577.215	10561.62
577.311	10493.62
577.406	10461.62
577.501	10465.62
577.597	10151.62
577.692	10510.62
577.787	10295.62
577.882	10083.62
577.978	10155.62
578.073	9946.62
578.168	9894.62
578.263	10003.62
578.358	9986.62
578.454	9671.62
578.549	9678.62
578.644	9823.62
578.739	9690.62
578.834	9690.62
578.929	9513.62
579.025	9611.62
579.12	9661.62
579.215	9774.62
579.31	9821.62
579.405	9425.62
579.5	9523.62
579.595	9446.62
579.69	9329.62
579.785	9352.62
579.88	9308.62
579.975	9242.62
580.07	9134.62
580.165	9222.62
580.26	9205.62
580.355	9090.62
580.45	8998.62
580.545	8966.62
580.64	8999.62
580.735	9071.62
580.83	8957.62
580.925	8752.62
581.02	8769.62
581.115	8887.62
581.21	8644.62
581.305	8771.62
581.4	8787.62
581.495	8791.62
581.589	8591.62
581.684	8603.62
581.779	8742.62
581.874	8531.62
581.969	8675.62
582.064	8591.62
582.158	8407.62
582.253	8496.62
582.348	8504.62
582.443	8395.62
582.537	8440.62
582.632	8578.62
582.727	8338.62
582.822	8313.62
582.916	8415.62
583.011	8282.62
583.106	8271.62
583.201	8171.62
583.295	8382.62
583.39	8141.62
583.485	8214.62
583.579	9934.62
583.674	8218.62
583.769	8360.62
583.863	8166.62
583.958	7968.62
584.052	7958.62
584.147	8098.62
584.242	7815.62
584.336	7936.62
584.431	8097.62
584.525	7867.62
584.62	7995.62
584.714	7875.62
584.809	7954.62
584.903	7805.62
584.998	7921.62
585.092	7805.62
585.187	7762.62
585.281	7730.62
585.376	7864.62
585.47	7904.62
585.565	7911.62
585.659	7618.62
585.754	7834.62
585.848	7736.62
585.942	7670.62
586.037	7657.62
586.131	9065.62
586.226	7705.62
586.32	7687.62
586.414	7444.62
586.509	7742.62
586.603	7708.62
586.697	7506.62
586.792	7440.62
586.886	7456.62
586.98	7606.62
587.075	7494.62
587.169	7528.62
587.263	7743.62
587.357	7458.62
587.452	7481.62
587.546	7627.62
587.64	7308.62
587.734	7531.62
587.829	7538.62
587.923	7445.62
588.017	7504.62
588.111	7691.62
588.205	7751.62
588.3	7719.62
588.394	7791.62
588.488	7947.62
588.582	8364.62
588.676	9239.62
588.77	13226.62
588.864	14564.62
588.958	14564.62
589.052	14564.62
589.147	12644.62
589.241	10231.62
589.335	10437.62
589.429	14564.62
589.523	14564.62
589.617	14564.62
589.711	11833.62
589.805	9436.62
589.899	8535.62
589.993	8001.62
590.087	7663.62
590.181	7672.62
590.275	7615.62
590.369	7591.62
590.462	7429.62
590.556	7387.62
590.65	7455.62
590.744	7366.62
590.838	7511.62
590.932	7540.62
591.026	7497.62
591.12	7748.62
591.214	7483.62
591.307	7607.62
591.401	7611.62
591.495	7799.62
591.589	7618.62
591.683	7693.62
591.777	7739.62
591.87	8274.62
591.964	7867.62
592.058	7893.62
592.152	8198.62
592.245	8106.62
592.339	8362.62
592.433	8555.62
592.527	8398.62
592.62	8539.62
592.714	8747.62
592.808	8925.62
592.901	8890.62
592.995	8882.62
593.089	9219.62
593.182	9110.62
593.276	9088.62
593.37	8965.62
593.463	8906.62
593.557	8919.62
593.65	9105.62
593.744	9048.62
593.837	9191.62
593.931	9181.62
594.025	12802.62
594.118	9389.62
594.212	9046.62
594.305	8780.62
594.399	8770.62
594.492	8791.62
594.586	8429.62
594.679	8093.62
594.773	8004.62
594.866	8017.62
594.96	7856.62
595.053	7713.62
595.146	7591.62
595.24	7427.62
595.333	7291.62
595.427	7224.62
595.52	7173.62
595.614	7152.62
595.707	6925.62
595.8	6905.62
595.894	6711.62
595.987	6603.62
596.08	6568.62
596.174	6784.62
596.267	6595.62
596.36	6640.62
596.454	6477.62
596.547	6352.62
596.64	6072.62
596.733	6093.62
596.827	6099.62
596.92	6122.62
597.013	6058.62
597.106	6001.62
597.2	5862.62
597.293	5859.62
597.386	6088.62
597.479	5855.62
597.572	5873.62
597.666	5818.62
597.759	5767.62
597.852	5939.62
597.945	5816.62
598.038	5724.62
598.131	5643.62
598.224	5705.62
598.317	5743.62
598.411	5651.62
598.504	5737.62
598.597	5754.62
598.69	5615.62
598.783	5603.62
598.876	5632.62
598.969	5595.62
599.062	5472.62
599.155	5772.62
599.248	5557.62
599.341	5554.62
599.434	5492.62
599.527	5564.62
599.62	5506.62
599.713	5463.62
599.806	5533.62
599.899	5660.62
599.991	5463.62
600.084	5692.62
600.177	5370.62
600.27	5385.62
600.363	5560.62
600.456	5397.62
600.549	5374.62
600.642	5305.62
600.734	5350.62
600.827	5202.62
600.92	5414.62
601.013	5158.62
601.106	5272.62
601.199	5282.62
601.291	5181.62
601.384	5239.62
601.477	5522.62
601.57	5294.62
601.662	5174.62
601.755	5179.62
601.848	5304.62
601.94	5116.62
602.033	5354.62
602.126	5223.62
602.219	5073.62
602.311	5197.62
602.404	5191.62
602.497	5094.62
602.589	5087.62
602.682	5178.62
602.774	5109.62
602.867	5098.62
602.96	5040.62
603.052	5114.62
603.145	5097.62
603.237	5073.62
603.33	5082.62
603.422	5122.62
603.515	4960.62
603.608	5065.62
603.7	4993.62
603.793	5012.62
603.885	5047.62
603.978	5038.62
604.07	4938.62
604.163	4944.62
604.255	5038.62
604.347	4996.62
604.44	4882.62
604.532	4957.62
604.625	5003.62
604.717	4871.62
604.81	5094.62
604.902	4900.62
604.994	4869.62
605.087	4938.62
605.179	4886.62
605.271	4926.62
605.364	4918.62
605.456	5001.62
605.548	4836.62
605.641	4871.62
605.733	4959.62
605.825	4902.62
605.918	4763.62
606.01	5081.62
606.102	5227.62
606.194	4803.62
606.287	5107.62
606.379	4812.62
606.471	4815.62
606.563	4806.62
606.655	4927.62
606.748	4896.62
606.84	4847.62
606.932	4891.62
607.024	4739.62
607.116	4708.62
607.208	4912.62
607.301	4747.62
607.393	4687.62
607.485	4743.62
607.577	4855.62
607.669	4842.62
607.761	4799.62
607.853	5085.62
607.945	4676.62
608.037	4688.62
608.129	4724.62
608.221	4731.62
608.313	4659.62
608.405	4869.62
608.497	4740.62
608.589	4685.62
608.681	4666.62
608.773	4806.62
608.865	4742.62
608.957	4697.62
609.049	4784.62
609.141	4817.62
609.233	4671.62
609.325	4639.62
609.417	4600.62
609.509	4712.62
609.601	4920.62
609.693	4819.62
609.784	4543.62
609.876	4662.62
609.968	4774.62
610.06	7014.62
610.152	4806.62
610.244	5562.62
610.335	4711.62
610.427	4541.62
610.519	4673.62
610.611	4486.62
610.702	4601.62
610.794	4535.62
610.886	4591.62
610.978	4400.62
611.069	4851.62
611.161	4344.62
611.253	4403.62
611.344	4234.62
611.436	4131.62
611.528	4167.62
611.62	4095.62
611.711	4022.62
611.803	4014.62
611.894	3910.62
611.986	3907.62
612.078	3935.62
612.169	3873.62
612.261	3698.62
612.352	3651.62
612.444	3569.62
612.536	3762.62
612.627	3649.62
612.719	3463.62
612.81	3373.62
612.902	3371.62
612.993	3360.62
613.085	3301.62
613.176	3246.62
613.268	3181.62
613.359	3132.62
613.451	3107.62
613.542	3098.62
613.634	2917.62
613.725	2891.62
613.816	3062.62
613.908	2780.62
613.999	2741.62
614.091	2781.62
614.182	2587.62
614.273	2624.62
614.365	2568.62
614.456	2381.62
614.547	2410.62
614.639	2363.62
614.73	2304.62
614.821	2326.62
614.913	2141.62
615.004	2114.62
615.095	2003.62
615.187	2022.62
