Data from 21g_HRC06701__78__322.txt Node

Date: Thu Apr 18 02:08:57 CDT 2024
User: Estudiantes 2
Spectrometer: HR+C0670
Trigger mode: 4
Integration Time (sec): 1.000000E0
Scans to average: 1
Electric dark correction enabled: true
Nonlinearity correction enabled: false
Boxcar width: 0
XAxis mode: Wavelengths
Number of Pixels in Spectrum: 2048
>>>>>Begin Spectral Data<<<<<
407.81	-136.88
407.921	-136.88
408.032	-136.88
408.143	-129.88
408.254	-127.88
408.365	40.12
408.476	268.12
408.587	-24.88
408.699	-9.88
408.81	-4.88
408.921	-62.88
409.032	-51.88
409.143	73.12
409.254	38.12
409.365	72.12
409.476	-27.88
409.587	31.12
409.698	54.12
409.809	76.12
409.92	23.12
410.031	-22.88
410.142	53.12
410.253	78.12
410.364	23.12
410.475	1698.12
410.585	8210.12
410.696	8727.12
410.807	8535.12
410.918	8630.12
411.029	8799.12
411.14	8775.12
411.251	8771.12
411.362	8911.12
411.472	8989.12
411.583	8861.12
411.694	9219.12
411.805	9123.12
411.916	9399.12
412.026	9344.12
412.137	9243.12
412.248	9097.12
412.359	9098.12
412.47	8761.12
412.58	8620.12
412.691	8832.12
412.802	8742.12
412.912	8891.12
413.023	8839.12
413.134	8893.12
413.245	8752.12
413.355	8943.12
413.466	8782.12
413.577	8687.12
413.687	8810.12
413.798	8570.12
413.909	8953.12
414.019	8974.12
414.13	9035.12
414.24	9067.12
414.351	9086.12
414.462	9331.12
414.572	9112.12
414.683	9043.12
414.793	9203.12
414.904	9440.12
415.014	9045.12
415.125	8911.12
415.235	9074.12
415.346	9144.12
415.456	9034.12
415.567	8948.12
415.677	8948.12
415.788	8974.12
415.898	8920.12
416.009	8821.12
416.119	9109.12
416.23	8874.12
416.34	8919.12
416.45	9057.12
416.561	9806.12
416.671	9028.12
416.782	9119.12
416.892	9212.12
417.002	9222.12
417.113	9437.12
417.223	9271.12
417.333	9266.12
417.444	9455.12
417.554	9611.12
417.664	9658.12
417.775	9467.12
417.885	9775.12
417.995	9646.12
418.106	10151.12
418.216	9945.12
418.326	10277.12
418.436	10464.12
418.547	10501.12
418.657	10487.12
418.767	10684.12
418.877	10688.12
418.987	10655.12
419.098	10624.12
419.208	10731.12
419.318	10680.12
419.428	10781.12
419.538	10559.12
419.648	10724.12
419.759	10458.12
419.869	10588.12
419.979	10529.12
420.089	10580.12
420.199	10714.12
420.309	10705.12
420.419	10641.12
420.529	10774.12
420.639	11040.12
420.749	10842.12
420.859	10821.12
420.969	10974.12
421.079	11139.12
421.189	10848.12
421.299	10675.12
421.409	10933.12
421.519	11048.12
421.629	11343.12
421.739	11260.12
421.849	11290.12
421.959	11465.12
422.069	11610.12
422.179	11550.12
422.289	11653.12
422.399	11920.12
422.509	12093.12
422.619	14534.12
422.729	12321.12
422.838	12399.12
422.948	12497.12
423.058	12453.12
423.168	12746.12
423.278	12975.12
423.388	12994.12
423.498	13390.12
423.607	13135.12
423.717	13507.12
423.827	13743.12
423.937	13521.12
424.046	13486.12
424.156	13673.12
424.266	13588.12
424.376	13929.12
424.485	13516.12
424.595	13613.12
424.705	13701.12
424.815	13646.12
424.924	14052.12
425.034	13571.12
425.144	13646.12
425.253	13541.12
425.363	13870.12
425.473	13793.12
425.582	13436.12
425.692	13803.12
425.801	13570.12
425.911	13870.12
426.021	13911.12
426.13	14127.12
426.24	14038.12
426.349	13862.12
426.459	14091.12
426.568	13947.12
426.678	14166.12
426.787	14155.12
426.897	13870.12
427.006	14261.12
427.116	14375.12
427.225	14211.12
427.335	14543.12
427.444	14352.12
427.554	14338.12
427.663	14561.12
427.773	14568.12
427.882	14568.12
427.992	14468.12
428.101	14568.12
428.21	14568.12
428.32	14568.12
428.429	14568.12
428.539	14568.12
428.648	14568.12
428.757	14568.12
428.867	14568.12
428.976	14568.12
429.085	14568.12
429.195	14568.12
429.304	14568.12
429.413	14568.12
429.523	14568.12
429.632	14568.12
429.741	14568.12
429.85	14568.12
429.96	14568.12
430.069	14568.12
430.178	14568.12
430.287	14568.12
430.397	14568.12
430.506	14568.12
430.615	14568.12
430.724	14568.12
430.833	14568.12
430.943	14568.12
431.052	14568.12
431.161	14568.12
431.27	14568.12
431.379	14568.12
431.488	14568.12
431.597	14568.12
431.706	14568.12
431.816	14568.12
431.925	14568.12
432.034	14568.12
432.143	14568.12
432.252	14568.12
432.361	14568.12
432.47	14568.12
432.579	14568.12
432.688	14568.12
432.797	14568.12
432.906	14568.12
433.015	14568.12
433.124	14568.12
433.233	14568.12
433.342	14568.12
433.451	14568.12
433.56	14568.12
433.669	14568.12
433.778	14568.12
433.886	14568.12
433.995	14568.12
434.104	14568.12
434.213	14568.12
434.322	14568.12
434.431	14568.12
434.54	14568.12
434.649	14568.12
434.757	14568.12
434.866	14568.12
434.975	14568.12
435.084	14568.12
435.193	14568.12
435.301	14568.12
435.41	14568.12
435.519	14568.12
435.628	14568.12
435.737	14568.12
435.845	14568.12
435.954	14568.12
436.063	14568.12
436.171	14568.12
436.28	14568.12
436.389	14568.12
436.498	14568.12
436.606	14568.12
436.715	14568.12
436.823	14568.12
436.932	14568.12
437.041	14568.12
437.149	14568.12
437.258	14568.12
437.367	14568.12
437.475	14568.12
437.584	14568.12
437.692	14568.12
437.801	14568.12
437.91	14568.12
438.018	14568.12
438.127	14568.12
438.235	14568.12
438.344	14568.12
438.452	14568.12
438.561	14568.12
438.669	14568.12
438.778	14568.12
438.886	14568.12
438.995	14568.12
439.103	14568.12
439.212	14568.12
439.32	14568.12
439.428	14568.12
439.537	14568.12
439.645	14568.12
439.754	14568.12
439.862	14568.12
439.97	14568.12
440.079	14568.12
440.187	14568.12
440.295	14568.12
440.404	14568.12
440.512	14568.12
440.62	14568.12
440.729	14568.12
440.837	14568.12
440.945	14568.12
441.054	14568.12
441.162	14568.12
441.27	14568.12
441.378	14568.12
441.487	14568.12
441.595	14568.12
441.703	14568.12
441.811	14568.12
441.92	14568.12
442.028	14568.12
442.136	14568.12
442.244	14568.12
442.352	14568.12
442.461	14568.12
442.569	14568.12
442.677	14568.12
442.785	14568.12
442.893	14568.12
443.001	14568.12
443.109	14568.12
443.217	14568.12
443.325	14568.12
443.434	14568.12
443.542	14568.12
443.65	14568.12
443.758	14568.12
443.866	14568.12
443.974	14568.12
444.082	14568.12
444.19	14568.12
444.298	14568.12
444.406	14568.12
444.514	14568.12
444.622	14568.12
444.73	14568.12
444.838	14568.12
444.946	14568.12
445.054	14568.12
445.161	14568.12
445.269	14568.12
445.377	14568.12
445.485	14568.12
445.593	14568.12
445.701	14568.12
445.809	14568.12
445.917	14568.12
446.025	14568.12
446.132	14568.12
446.24	14568.12
446.348	14568.12
446.456	14568.12
446.564	14568.12
446.671	14568.12
446.779	14568.12
446.887	14568.12
446.995	14568.12
447.102	14568.12
447.21	14568.12
447.318	14568.12
447.426	14568.12
447.533	14568.12
447.641	14568.12
447.749	14568.12
447.856	14568.12
447.964	14568.12
448.072	14568.12
448.179	14568.12
448.287	14568.12
448.395	14568.12
448.502	14568.12
448.61	14568.12
448.718	14568.12
448.825	14568.12
448.933	14568.12
449.04	14568.12
449.148	14568.12
449.256	14568.12
449.363	14568.12
449.471	14568.12
449.578	14568.12
449.686	14568.12
449.793	14568.12
449.901	14568.12
450.008	14568.12
450.116	14568.12
450.223	14568.12
450.331	14568.12
450.438	14568.12
450.546	14568.12
450.653	14568.12
450.76	14568.12
450.868	14568.12
450.975	14568.12
451.083	14568.12
451.19	14568.12
451.297	14568.12
451.405	14568.12
451.512	14568.12
451.619	14568.12
451.727	14568.12
451.834	14568.12
451.941	14568.12
452.049	14568.12
452.156	14568.12
452.263	14568.12
452.371	14568.12
452.478	14568.12
452.585	14568.12
452.692	14568.12
452.8	14568.12
452.907	14568.12
453.014	14568.12
453.121	14568.12
453.229	14568.12
453.336	14568.12
453.443	14568.12
453.55	14568.12
453.657	14568.12
453.765	14568.12
453.872	14568.12
453.979	14568.12
454.086	14568.12
454.193	14568.12
454.3	14568.12
454.407	14568.12
454.514	14568.12
454.621	14568.12
454.729	14568.12
454.836	14568.12
454.943	14568.12
455.05	14568.12
455.157	14568.12
455.264	14568.12
455.371	14568.12
455.478	14568.12
455.585	14568.12
455.692	14568.12
455.799	14568.12
455.906	14568.12
456.013	14568.12
456.12	14568.12
456.227	14568.12
456.334	14568.12
456.44	14568.12
456.547	14568.12
456.654	14568.12
456.761	14568.12
456.868	14568.12
456.975	14568.12
457.082	14568.12
457.189	14568.12
457.296	14568.12
457.402	14568.12
457.509	14568.12
457.616	14568.12
457.723	14568.12
457.83	14568.12
457.936	14568.12
458.043	14568.12
458.15	14568.12
458.257	14568.12
458.363	14568.12
458.47	14568.12
458.577	14568.12
458.684	14568.12
458.79	14568.12
458.897	14568.12
459.004	14568.12
459.11	14568.12
459.217	14568.12
459.324	14568.12
459.43	14568.12
459.537	14568.12
459.644	14568.12
459.75	14568.12
459.857	14568.12
459.964	14568.12
460.07	14568.12
460.177	14568.12
460.283	14568.12
460.39	14568.12
460.496	14568.12
460.603	14568.12
460.71	14568.12
460.816	14568.12
460.923	14568.12
461.029	14568.12
461.136	14568.12
461.242	14568.12
461.349	14568.12
461.455	14568.12
461.562	14568.12
461.668	14568.12
461.774	14568.12
461.881	14568.12
461.987	14568.12
462.094	14568.12
462.2	14568.12
462.307	14568.12
462.413	14568.12
462.519	14568.12
462.626	14568.12
462.732	14568.12
462.838	14568.12
462.945	14568.12
463.051	14568.12
463.157	14568.12
463.264	14568.12
463.37	14568.12
463.476	14568.12
463.583	14568.12
463.689	14568.12
463.795	14568.12
463.901	14568.12
464.008	14568.12
464.114	14568.12
464.22	14568.12
464.326	14568.12
464.433	14568.12
464.539	14568.12
464.645	14568.12
464.751	14568.12
464.857	14568.12
464.963	14568.12
465.07	14568.12
465.176	14568.12
465.282	14568.12
465.388	14568.12
465.494	14568.12
465.6	14568.12
465.706	14568.12
465.812	14568.12
465.918	14568.12
466.024	14568.12
466.131	14568.12
466.237	14568.12
466.343	14568.12
466.449	14568.12
466.555	14568.12
466.661	14568.12
466.767	14568.12
466.873	14568.12
466.979	14568.12
467.085	14568.12
467.191	14568.12
467.296	14568.12
467.402	14568.12
467.508	14568.12
467.614	14568.12
467.72	14568.12
467.826	14568.12
467.932	14568.12
468.038	14568.12
468.144	14568.12
468.25	14568.12
468.355	14568.12
468.461	14568.12
468.567	14568.12
468.673	14568.12
468.779	14568.12
468.885	14568.12
468.99	14568.12
469.096	14568.12
469.202	14568.12
469.308	14568.12
469.413	14568.12
469.519	14568.12
469.625	14568.12
469.731	14568.12
469.836	14568.12
469.942	14568.12
470.048	14568.12
470.153	14568.12
470.259	14568.12
470.365	14568.12
470.47	14568.12
470.576	14568.12
470.682	14568.12
470.787	14568.12
470.893	14568.12
470.999	14568.12
471.104	14568.12
471.21	14568.12
471.315	14568.12
471.421	14568.12
471.527	14568.12
471.632	14568.12
471.738	14568.12
471.843	14568.12
471.949	14568.12
472.054	14568.12
472.16	14568.12
472.265	14568.12
472.371	14568.12
472.476	14568.12
472.582	14568.12
472.687	14568.12
472.793	14568.12
472.898	14568.12
473.003	14568.12
473.109	14568.12
473.214	14568.12
473.32	14568.12
473.425	14568.12
473.53	14568.12
473.636	14568.12
473.741	14568.12
473.847	14568.12
473.952	14568.12
474.057	14568.12
474.163	14568.12
474.268	14568.12
474.373	14568.12
474.478	14568.12
474.584	14568.12
474.689	14568.12
474.794	14568.12
474.9	14568.12
475.005	14568.12
475.11	14568.12
475.215	14568.12
475.321	14568.12
475.426	14568.12
475.531	14568.12
475.636	14568.12
475.741	14568.12
475.846	14568.12
475.952	14568.12
476.057	14568.12
476.162	14568.12
476.267	14568.12
476.372	14568.12
476.477	14568.12
476.582	14568.12
476.687	14568.12
476.793	14568.12
476.898	14568.12
477.003	14568.12
477.108	14568.12
477.213	14568.12
477.318	14568.12
477.423	14568.12
477.528	14568.12
477.633	14568.12
477.738	14568.12
477.843	14568.12
477.948	14568.12
478.053	14568.12
478.158	14568.12
478.263	14568.12
478.368	14568.12
478.473	14568.12
478.578	14568.12
478.682	14568.12
478.787	14568.12
478.892	14568.12
478.997	14568.12
479.102	14568.12
479.207	14568.12
479.312	14568.12
479.417	14568.12
479.521	14568.12
479.626	14568.12
479.731	14568.12
479.836	14568.12
479.941	14568.12
480.045	14568.12
480.15	14568.12
480.255	14568.12
480.36	14568.12
480.465	14568.12
480.569	14568.12
480.674	14568.12
480.779	14568.12
480.883	14568.12
480.988	14568.12
481.093	14568.12
481.197	14568.12
481.302	14568.12
481.407	14568.12
481.511	14568.12
481.616	14568.12
481.721	14568.12
481.825	14568.12
481.93	14568.12
482.035	14568.12
482.139	14568.12
482.244	14568.12
482.348	14568.12
482.453	14568.12
482.557	14568.12
482.662	14568.12
482.767	14568.12
482.871	14568.12
482.976	14568.12
483.08	14568.12
483.185	14568.12
483.289	14568.12
483.394	14568.12
483.498	14568.12
483.603	14568.12
483.707	14568.12
483.811	14568.12
483.916	14568.12
484.02	14568.12
484.125	14568.12
484.229	14568.12
484.333	14568.12
484.438	14568.12
484.542	14568.12
484.647	14568.12
484.751	14568.12
484.855	14568.12
484.96	14568.12
485.064	14568.12
485.168	14568.12
485.273	14568.12
485.377	14568.12
485.481	14568.12
485.585	14568.12
485.69	14568.12
485.794	14568.12
485.898	14568.12
486.002	14568.12
486.107	14568.12
486.211	14568.12
486.315	14568.12
486.419	14568.12
486.524	14568.12
486.628	14568.12
486.732	14568.12
486.836	14568.12
486.94	14568.12
487.044	14568.12
487.148	14568.12
487.253	14568.12
487.357	14568.12
487.461	14568.12
487.565	14568.12
487.669	14568.12
487.773	14568.12
487.877	14568.12
487.981	14568.12
488.085	14568.12
488.189	14568.12
488.293	14568.12
488.397	14568.12
488.501	14568.12
488.605	14568.12
488.709	14568.12
488.813	14568.12
488.917	14568.12
489.021	14568.12
489.125	14568.12
489.229	14568.12
489.333	14568.12
489.437	14568.12
489.541	14568.12
489.645	14568.12
489.749	14568.12
489.853	14568.12
489.956	14568.12
490.06	14568.12
490.164	14568.12
490.268	14568.12
490.372	14568.12
490.476	14568.12
490.579	14568.12
490.683	14568.12
490.787	14568.12
490.891	14568.12
490.995	14568.12
491.098	14568.12
491.202	14568.12
491.306	14568.12
491.41	14568.12
491.513	14568.12
491.617	14568.12
491.721	14568.12
491.824	14568.12
491.928	14568.12
492.032	14568.12
492.136	14568.12
492.239	14568.12
492.343	14568.12
492.446	14568.12
492.55	14568.12
492.654	14568.12
492.757	14568.12
492.861	14568.12
492.965	14568.12
493.068	14568.12
493.172	14568.12
493.275	14568.12
493.379	14568.12
493.482	14568.12
493.586	14568.12
493.689	14568.12
493.793	14568.12
493.896	14568.12
494	14568.12
494.103	14568.12
494.207	14568.12
494.31	14568.12
494.414	14568.12
494.517	14568.12
494.621	14568.12
494.724	14568.12
494.828	14568.12
494.931	14568.12
495.034	14568.12
495.138	14568.12
495.241	14568.12
495.345	14568.12
495.448	14568.12
495.551	14568.12
495.655	14568.12
495.758	14568.12
495.861	14568.12
495.965	14568.12
496.068	14568.12
496.171	14568.12
496.274	14568.12
496.378	14568.12
496.481	14568.12
496.584	14568.12
496.687	14568.12
496.791	14568.12
496.894	14568.12
496.997	14568.12
497.1	14568.12
497.204	14568.12
497.307	14568.12
497.41	14568.12
497.513	14568.12
497.616	14568.12
497.719	14568.12
497.823	14568.12
497.926	14568.12
498.029	14568.12
498.132	14568.12
498.235	14568.12
498.338	14568.12
498.441	14568.12
498.544	14568.12
498.647	14568.12
498.75	14568.12
498.853	14568.12
498.956	14568.12
499.059	14568.12
499.163	14568.12
499.266	14568.12
499.369	14568.12
499.471	14568.12
499.574	14568.12
499.677	14568.12
499.78	14568.12
499.883	14568.12
499.986	14568.12
500.089	14568.12
500.192	14568.12
500.295	14568.12
500.398	14568.12
500.501	14568.12
500.604	14568.12
500.707	14568.12
500.809	14568.12
500.912	14568.12
501.015	14568.12
501.118	14568.12
501.221	14568.12
501.324	14568.12
501.426	14568.12
501.529	14568.12
501.632	14568.12
501.735	14568.12
501.837	14568.12
501.94	14568.12
502.043	14568.12
502.146	14568.12
502.248	14568.12
502.351	14568.12
502.454	14568.12
502.557	14568.12
502.659	14568.12
502.762	14568.12
502.865	14568.12
502.967	14568.12
503.07	14568.12
503.173	14568.12
503.275	14568.12
503.378	14568.12
503.48	14568.12
503.583	14568.12
503.686	14568.12
503.788	14568.12
503.891	14568.12
503.993	14568.12
504.096	14568.12
504.198	14568.12
504.301	14568.12
504.403	14568.12
504.506	14568.12
504.608	14568.12
504.711	14568.12
504.813	14568.12
504.916	14568.12
505.018	14568.12
505.121	14568.12
505.223	14568.12
505.326	14568.12
505.428	14568.12
505.531	14568.12
505.633	14568.12
505.735	14568.12
505.838	14568.12
505.94	14568.12
506.042	14568.12
506.145	14568.12
506.247	14568.12
506.35	14568.12
506.452	14568.12
506.554	14568.12
506.656	14568.12
506.759	14568.12
506.861	14568.12
506.963	14568.12
507.066	14568.12
507.168	14568.12
507.27	14568.12
507.372	14568.12
507.475	14568.12
507.577	14568.12
507.679	14568.12
507.781	14568.12
507.883	14568.12
507.986	14568.12
508.088	14568.12
508.19	14568.12
508.292	14568.12
508.394	14568.12
508.496	14568.12
508.598	14568.12
508.701	14568.12
508.803	14568.12
508.905	14568.12
509.007	14568.12
509.109	14568.12
509.211	14568.12
509.313	14568.12
509.415	14568.12
509.517	14568.12
509.619	14568.12
509.721	14568.12
509.823	14568.12
509.925	14568.12
510.027	14568.12
510.129	14568.12
510.231	14568.12
510.333	14568.12
510.435	14568.12
510.537	14568.12
510.639	14568.12
510.741	14568.12
510.843	14568.12
510.945	14568.12
511.047	14568.12
511.148	14568.12
511.25	14568.12
511.352	14568.12
511.454	14568.12
511.556	14568.12
511.658	14568.12
511.76	14568.12
511.861	14568.12
511.963	14568.12
512.065	14568.12
512.167	14568.12
512.268	14568.12
512.37	14568.12
512.472	14568.12
512.574	14568.12
512.676	14568.12
512.777	14568.12
512.879	14568.12
512.981	14568.12
513.082	14568.12
513.184	14568.12
513.286	14568.12
513.387	14568.12
513.489	14568.12
513.591	14568.12
513.692	14568.12
513.794	14568.12
513.896	14568.12
513.997	14568.12
514.099	14568.12
514.2	14568.12
514.302	14568.12
514.404	14568.12
514.505	14568.12
514.607	14568.12
514.708	14568.12
514.81	14568.12
514.911	14568.12
515.013	14568.12
515.114	14568.12
515.216	14568.12
515.317	14568.12
515.419	14568.12
515.52	14568.12
515.622	14568.12
515.723	14568.12
515.825	14568.12
515.926	14568.12
516.027	14568.12
516.129	14568.12
516.23	14568.12
516.332	14568.12
516.433	14568.12
516.534	14568.12
516.636	14568.12
516.737	14568.12
516.838	14568.12
516.94	14568.12
517.041	14568.12
517.142	14568.12
517.244	14568.12
517.345	14568.12
517.446	14568.12
517.547	14568.12
517.649	14568.12
517.75	14568.12
517.851	14568.12
517.952	14568.12
518.054	14568.12
518.155	14568.12
518.256	14568.12
518.357	14568.12
518.458	14568.12
518.56	14568.12
518.661	14568.12
518.762	14568.12
518.863	14568.12
518.964	14568.12
519.065	14568.12
519.166	14568.12
519.268	14568.12
519.369	14568.12
519.47	14568.12
519.571	14568.12
519.672	14568.12
519.773	14568.12
519.874	14568.12
519.975	14568.12
520.076	14568.12
520.177	14568.12
520.278	14568.12
520.379	14568.12
520.48	14568.12
520.581	14568.12
520.682	14568.12
520.783	14568.12
520.884	14568.12
520.985	14568.12
521.086	14568.12
521.187	14568.12
521.288	14568.12
521.389	14568.12
521.489	14568.12
521.59	14568.12
521.691	14568.12
521.792	14568.12
521.893	14568.12
521.994	14568.12
522.095	14568.12
522.195	14568.12
522.296	14568.12
522.397	14568.12
522.498	14568.12
522.599	14568.12
522.699	14568.12
522.8	14568.12
522.901	14568.12
523.002	14568.12
523.102	14568.12
523.203	14568.12
523.304	14568.12
523.405	14568.12
523.505	14568.12
523.606	14568.12
523.707	14568.12
523.807	14568.12
523.908	14568.12
524.009	14568.12
524.109	14568.12
524.21	14568.12
524.31	14568.12
524.411	14568.12
524.512	14568.12
524.612	14568.12
524.713	14568.12
524.813	14568.12
524.914	14568.12
525.014	14568.12
525.115	14568.12
525.216	14568.12
525.316	14568.12
525.417	14568.12
525.517	14568.12
525.618	14568.12
525.718	14568.12
525.819	14568.12
525.919	14568.12
526.019	14568.12
526.12	14568.12
526.22	14568.12
526.321	14568.12
526.421	14568.12
526.522	14568.12
526.622	14568.12
526.722	14568.12
526.823	14568.12
526.923	14568.12
527.023	14568.12
527.124	14568.12
527.224	14568.12
527.324	14568.12
527.425	14568.12
527.525	14568.12
527.625	14568.12
527.726	14568.12
527.826	14568.12
527.926	14568.12
528.026	14568.12
528.127	14568.12
528.227	14568.12
528.327	14568.12
528.427	14568.12
528.528	14568.12
528.628	14568.12
528.728	14568.12
528.828	14568.12
528.928	14568.12
529.029	14568.12
529.129	14568.12
529.229	14568.12
529.329	14568.12
529.429	14568.12
529.529	14568.12
529.629	14568.12
529.729	14568.12
529.829	14568.12
529.93	14568.12
530.03	14568.12
530.13	14568.12
530.23	14568.12
530.33	14568.12
530.43	14568.12
530.53	14568.12
530.63	14568.12
530.73	14568.12
530.83	14568.12
530.93	14568.12
531.03	14568.12
531.13	14568.12
531.23	14568.12
531.33	14568.12
531.429	14568.12
531.529	14568.12
531.629	14568.12
531.729	14568.12
531.829	14568.12
531.929	14568.12
532.029	14568.12
532.129	14568.12
532.229	14568.12
532.328	14568.12
532.428	14568.12
532.528	14568.12
532.628	14568.12
532.728	14568.12
532.827	14568.12
532.927	14568.12
533.027	14568.12
533.127	14568.12
533.227	14568.12
533.326	14568.12
533.426	14568.12
533.526	14568.12
533.625	14568.12
533.725	14568.12
533.825	14568.12
533.924	14568.12
534.024	14568.12
534.124	14568.12
534.223	14568.12
534.323	14568.12
534.423	14568.12
534.522	14568.12
534.622	14568.12
534.722	14568.12
534.821	14568.12
534.921	14568.12
535.02	14568.12
535.12	14568.12
535.219	14568.12
535.319	14568.12
535.419	14568.12
535.518	14568.12
535.618	14568.12
535.717	14568.12
535.817	14568.12
535.916	14568.12
536.016	14568.12
536.115	14568.12
536.215	14568.12
536.314	14568.12
536.413	14568.12
536.513	14568.12
536.612	14568.12
536.712	14568.12
536.811	14568.12
536.91	14568.12
537.01	14568.12
537.109	14568.12
537.209	14568.12
537.308	14568.12
537.407	14568.12
537.507	14568.12
537.606	14568.12
537.705	14568.12
537.805	14568.12
537.904	14568.12
538.003	14568.12
538.102	14568.12
538.202	14568.12
538.301	14568.12
538.4	14568.12
538.499	14568.12
538.599	14568.12
538.698	14568.12
538.797	14568.12
538.896	14568.12
538.995	14568.12
539.095	14568.12
539.194	14568.12
539.293	14568.12
539.392	14568.12
539.491	14568.12
539.59	14568.12
539.689	14568.12
539.789	14568.12
539.888	14568.12
539.987	14568.12
540.086	14568.12
540.185	14568.12
540.284	14568.12
540.383	14568.12
540.482	14568.12
540.581	14568.12
540.68	14568.12
540.779	14568.12
540.878	14568.12
540.977	14568.12
541.076	14568.12
541.175	14568.12
541.274	14568.12
541.373	14568.12
541.472	14568.12
541.571	14568.12
541.67	14568.12
541.769	14568.12
541.868	14568.12
541.966	14568.12
542.065	14568.12
542.164	14568.12
542.263	14568.12
542.362	14568.12
542.461	14568.12
542.56	14568.12
542.658	14568.12
542.757	14568.12
542.856	14568.12
542.955	14568.12
543.054	14568.12
543.152	14568.12
543.251	14568.12
543.35	14568.12
543.449	14568.12
543.547	14568.12
543.646	14568.12
543.745	14568.12
543.843	14568.12
543.942	14568.12
544.041	14568.12
544.14	14568.12
544.238	14568.12
544.337	14568.12
544.436	14568.12
544.534	14568.12
544.633	14568.12
544.731	14568.12
544.83	14568.12
544.929	14568.12
545.027	14568.12
545.126	14568.12
545.224	14568.12
545.323	14568.12
545.421	14568.12
545.52	14568.12
545.619	14568.12
545.717	14568.12
545.816	14568.12
545.914	14568.12
546.013	14568.12
546.111	14568.12
546.209	14568.12
546.308	14568.12
546.406	14568.12
546.505	14568.12
546.603	14568.12
546.702	14568.12
546.8	14568.12
546.899	14568.12
546.997	14568.12
547.095	14568.12
547.194	14568.12
547.292	14568.12
547.39	14568.12
547.489	14568.12
547.587	14568.12
547.685	14568.12
547.784	14568.12
547.882	14568.12
547.98	14568.12
548.079	14568.12
548.177	14568.12
548.275	14568.12
548.373	14568.12
548.472	14568.12
548.57	14568.12
548.668	14568.12
548.766	14568.12
548.864	14568.12
548.963	14568.12
549.061	14568.12
549.159	14568.12
549.257	14568.12
549.355	14568.12
549.454	14568.12
549.552	14568.12
549.65	14568.12
549.748	14568.12
549.846	14568.12
549.944	14568.12
550.042	14568.12
550.14	14568.12
550.238	14568.12
550.336	14568.12
550.434	14568.12
550.532	14568.12
550.631	14568.12
550.729	14568.12
550.827	14568.12
550.925	14568.12
551.023	14568.12
551.121	14568.12
551.218	14568.12
551.316	14568.12
551.414	14568.12
551.512	14568.12
551.61	14568.12
551.708	14568.12
551.806	14568.12
551.904	14568.12
552.002	14568.12
552.1	14568.12
552.198	14568.12
552.296	14568.12
552.393	14568.12
552.491	14568.12
552.589	14568.12
552.687	14568.12
552.785	14568.12
552.882	14568.12
552.98	14568.12
553.078	14568.12
553.176	14568.12
553.274	14568.12
553.371	14568.12
553.469	14568.12
553.567	14568.12
553.665	14568.12
553.762	14568.12
553.86	14568.12
553.958	14568.12
554.055	14568.12
554.153	14568.12
554.251	14568.12
554.348	14568.12
554.446	14568.12
554.544	14568.12
554.641	14568.12
554.739	14568.12
554.837	14568.12
554.934	14568.12
555.032	14568.12
555.129	14568.12
555.227	14568.12
555.324	14568.12
555.422	14568.12
555.519	14568.12
555.617	14568.12
555.715	14238.12
555.812	14568.12
555.91	14137.12
556.007	14398.12
556.105	14016.12
556.202	14150.12
556.299	13977.12
556.397	14136.12
556.494	13928.12
556.592	14061.12
556.689	13895.12
556.787	13787.12
556.884	13746.12
556.981	13789.12
557.079	13841.12
557.176	13830.12
557.273	13686.12
557.371	13944.12
557.468	13623.12
557.566	13728.12
557.663	13667.12
557.76	13760.12
557.857	13776.12
557.955	13748.12
558.052	13829.12
558.149	13879.12
558.247	13719.12
558.344	13757.12
558.441	13661.12
558.538	13552.12
558.636	13677.12
558.733	13804.12
558.83	13750.12
558.927	13738.12
559.024	13870.12
559.122	13804.12
559.219	13891.12
559.316	13909.12
559.413	14027.12
559.51	13757.12
559.607	13890.12
559.704	13923.12
559.801	13852.12
559.899	13763.12
559.996	14205.12
560.093	13908.12
560.19	13841.12
560.287	13959.12
560.384	14074.12
560.481	13732.12
560.578	13785.12
560.675	13908.12
560.772	14211.12
560.869	13837.12
560.966	14275.12
561.063	13937.12
561.16	14214.12
561.257	14258.12
561.354	14201.12
561.451	14183.12
561.548	14215.12
561.645	14410.12
561.742	14321.12
561.838	14282.12
561.935	14453.12
562.032	14378.12
562.129	14438.12
562.226	14532.12
562.323	14502.12
562.42	14518.12
562.516	14568.12
562.613	14568.12
562.71	14568.12
562.807	14568.12
562.904	14568.12
563	14568.12
563.097	14568.12
563.194	14568.12
563.291	14568.12
563.387	14568.12
563.484	14568.12
563.581	14568.12
563.678	14568.12
563.774	14568.12
563.871	14568.12
563.968	14568.12
564.064	14568.12
564.161	14568.12
564.258	14568.12
564.354	14568.12
564.451	14568.12
564.548	14568.12
564.644	14568.12
564.741	14568.12
564.837	14568.12
564.934	14568.12
565.031	14568.12
565.127	14568.12
565.224	14568.12
565.32	14568.12
565.417	14568.12
565.513	14568.12
565.61	14568.12
565.706	14568.12
565.803	14568.12
565.899	14568.12
565.996	14568.12
566.092	14568.12
566.189	14568.12
566.285	14568.12
566.382	14568.12
566.478	14568.12
566.574	14568.12
566.671	14568.12
566.767	14568.12
566.864	14568.12
566.96	14568.12
567.056	14568.12
567.153	14568.12
567.249	14568.12
567.345	14568.12
567.442	14568.12
567.538	14568.12
567.634	14568.12
567.731	14568.12
567.827	14568.12
567.923	14568.12
568.019	14568.12
568.116	14568.12
568.212	14568.12
568.308	14568.12
568.404	14568.12
568.501	14568.12
568.597	14568.12
568.693	14568.12
568.789	14568.12
568.885	14568.12
568.982	14568.12
569.078	14568.12
569.174	14568.12
569.27	14568.12
569.366	14568.12
569.462	14568.12
569.558	14568.12
569.655	14568.12
569.751	14568.12
569.847	14568.12
569.943	14568.12
570.039	14568.12
570.135	14568.12
570.231	14568.12
570.327	14568.12
570.423	14568.12
570.519	14568.12
570.615	14568.12
570.711	14568.12
570.807	14568.12
570.903	14568.12
570.999	14568.12
571.095	14568.12
571.191	14568.12
571.287	14568.12
571.383	14568.12
571.479	14568.12
571.574	14568.12
571.67	14568.12
571.766	14568.12
571.862	14568.12
571.958	14568.12
572.054	14568.12
572.15	14297.12
572.246	14332.12
572.341	14390.12
572.437	14126.12
572.533	14133.12
572.629	13962.12
572.725	13826.12
572.82	13763.12
572.916	13663.12
573.012	13682.12
573.108	13640.12
573.203	13596.12
573.299	13445.12
573.395	13275.12
573.49	13311.12
573.586	13158.12
573.682	13177.12
573.778	13375.12
573.873	13030.12
573.969	13113.12
574.065	12982.12
574.16	13123.12
574.256	13033.12
574.351	13199.12
574.447	12961.12
574.543	13094.12
574.638	13195.12
574.734	13111.12
574.829	13149.12
574.925	12885.12
575.02	12679.12
575.116	12544.12
575.212	12410.12
575.307	12479.12
575.403	12369.12
575.498	12249.12
575.594	12174.12
575.689	12341.12
575.784	11982.12
575.88	12037.12
575.975	11964.12
576.071	11963.12
576.166	11735.12
576.262	11817.12
576.357	11788.12
576.452	12039.12
576.548	11846.12
576.643	11864.12
576.739	11794.12
576.834	11635.12
576.929	11643.12
577.025	11822.12
577.12	11292.12
577.215	11460.12
577.311	11351.12
577.406	11419.12
577.501	11383.12
577.597	11094.12
577.692	11334.12
577.787	11185.12
577.882	10983.12
577.978	10971.12
578.073	10957.12
578.168	10837.12
578.263	10779.12
578.358	10734.12
578.454	10647.12
578.549	10711.12
578.644	10617.12
578.739	10609.12
578.834	10451.12
578.929	10318.12
579.025	10321.12
579.12	10475.12
579.215	10643.12
579.31	10449.12
579.405	10295.12
579.5	10296.12
579.595	10202.12
579.69	10076.12
579.785	10094.12
579.88	9967.12
579.975	10027.12
580.07	9926.12
580.165	9873.12
580.26	10084.12
580.355	9909.12
580.45	9749.12
580.545	9715.12
580.64	9752.12
580.735	9740.12
580.83	9753.12
580.925	9564.12
581.02	9463.12
581.115	9413.12
581.21	9473.12
581.305	9503.12
581.4	9374.12
581.495	9517.12
581.589	9414.12
581.684	9347.12
581.779	9312.12
581.874	9235.12
581.969	9350.12
582.064	9144.12
582.158	9241.12
582.253	9083.12
582.348	9012.12
582.443	9197.12
582.537	9189.12
582.632	9150.12
582.727	8999.12
582.822	8958.12
582.916	8977.12
583.011	9015.12
583.106	9111.12
583.201	8817.12
583.295	8847.12
583.39	8744.12
583.485	8733.12
583.579	10562.12
583.674	8963.12
583.769	8919.12
583.863	8678.12
583.958	8670.12
584.052	8639.12
584.147	8507.12
584.242	8498.12
584.336	8683.12
584.431	8794.12
584.525	8539.12
584.62	8779.12
584.714	8600.12
584.809	8615.12
584.903	8485.12
584.998	8560.12
585.092	8455.12
585.187	8437.12
585.281	8351.12
585.376	8418.12
585.47	8524.12
585.565	8479.12
585.659	8227.12
585.754	8335.12
585.848	8396.12
585.942	8171.12
586.037	8178.12
586.131	9586.12
586.226	8325.12
586.32	8288.12
586.414	8076.12
586.509	8380.12
586.603	8192.12
586.697	8167.12
586.792	8243.12
586.886	8094.12
586.98	8146.12
587.075	8187.12
587.169	8056.12
587.263	8324.12
587.357	8111.12
587.452	8012.12
587.546	8076.12
587.64	7923.12
587.734	7908.12
587.829	8156.12
587.923	8084.12
588.017	8087.12
588.111	8035.12
588.205	8175.12
588.3	8351.12
588.394	8276.12
588.488	8510.12
588.582	8996.12
588.676	9767.12
588.77	13911.12
588.864	14568.12
588.958	14568.12
589.052	14568.12
589.147	13358.12
589.241	10939.12
589.335	10969.12
589.429	14568.12
589.523	14568.12
589.617	14568.12
589.711	12750.12
589.805	10107.12
589.899	9039.12
589.993	8530.12
590.087	8331.12
590.181	8246.12
590.275	8125.12
590.369	8156.12
590.462	8042.12
590.556	7982.12
590.65	8088.12
590.744	8028.12
590.838	7983.12
590.932	8068.12
591.026	8228.12
591.12	8391.12
591.214	8070.12
591.307	8120.12
591.401	8255.12
591.495	8379.12
591.589	8275.12
591.683	8422.12
591.777	8493.12
591.87	8871.12
591.964	8610.12
592.058	8631.12
592.152	8827.12
592.245	8860.12
592.339	9154.12
592.433	9318.12
592.527	9323.12
592.62	9452.12
592.714	9588.12
592.808	9785.12
592.901	9931.12
592.995	9829.12
593.089	10145.12
593.182	10192.12
593.276	10010.12
593.37	9854.12
593.463	9999.12
593.557	9996.12
593.65	10010.12
593.744	10058.12
593.837	10263.12
593.931	10314.12
594.025	13792.12
594.118	10489.12
594.212	10044.12
594.305	9907.12
594.399	9766.12
594.492	9744.12
594.586	9163.12
594.679	9131.12
594.773	8776.12
594.866	8743.12
594.96	8737.12
595.053	8334.12
595.146	8266.12
595.24	8229.12
595.333	8088.12
595.427	7861.12
595.52	7852.12
595.614	7832.12
595.707	7535.12
595.8	7371.12
595.894	7316.12
595.987	7175.12
596.08	7043.12
596.174	7329.12
596.267	7069.12
596.36	6995.12
596.454	6964.12
596.547	6852.12
596.64	6608.12
596.733	6592.12
596.827	6654.12
596.92	6525.12
597.013	6387.12
597.106	6304.12
597.2	6478.12
597.293	6348.12
597.386	6496.12
597.479	6364.12
597.572	6285.12
597.666	6275.12
597.759	6214.12
597.852	6266.12
597.945	6129.12
598.038	6161.12
598.131	6081.12
598.224	6114.12
598.317	6345.12
598.411	6073.12
598.504	5942.12
598.597	6179.12
598.69	6041.12
598.783	5999.12
598.876	6055.12
598.969	6031.12
599.062	5873.12
599.155	6058.12
599.248	6003.12
599.341	5889.12
599.434	5894.12
599.527	6015.12
599.62	5913.12
599.713	5891.12
599.806	5943.12
599.899	6007.12
599.991	5759.12
600.084	6027.12
600.177	5827.12
600.27	5686.12
600.363	5945.12
600.456	5803.12
600.549	5792.12
600.642	5651.12
600.734	5625.12
600.827	5694.12
600.92	5746.12
601.013	5690.12
601.106	5729.12
601.199	5548.12
601.291	5623.12
601.384	5683.12
601.477	5746.12
601.57	5772.12
601.662	5542.12
601.755	5595.12
601.848	5602.12
601.94	5535.12
602.033	5648.12
602.126	5507.12
602.219	5453.12
602.311	5650.12
602.404	5393.12
602.497	5379.12
602.589	5362.12
602.682	5478.12
602.774	5419.12
602.867	5538.12
602.96	5407.12
603.052	5395.12
603.145	5411.12
603.237	5391.12
603.33	5379.12
603.422	5488.12
603.515	5325.12
603.608	5355.12
603.7	5352.12
603.793	5343.12
603.885	5340.12
603.978	5358.12
604.07	5295.12
604.163	5192.12
604.255	5367.12
604.347	5286.12
604.44	5243.12
604.532	5242.12
604.625	5298.12
604.717	5301.12
604.81	5309.12
604.902	5231.12
604.994	5214.12
605.087	5260.12
605.179	5228.12
605.271	5246.12
605.364	5252.12
605.456	5253.12
605.548	5221.12
605.641	5135.12
605.733	5091.12
605.825	5221.12
605.918	5077.12
606.01	5326.12
606.102	5557.12
606.194	5231.12
606.287	5321.12
606.379	5120.12
606.471	5136.12
606.563	5155.12
606.655	5115.12
606.748	5221.12
606.84	4975.12
606.932	5160.12
607.024	5157.12
607.116	5067.12
607.208	4998.12
607.301	5080.12
607.393	5128.12
607.485	5022.12
607.577	5042.12
607.669	5273.12
607.761	5175.12
607.853	5233.12
607.945	5039.12
608.037	4957.12
608.129	4963.12
608.221	5036.12
608.313	4961.12
608.405	5046.12
608.497	5038.12
608.589	4889.12
608.681	4965.12
608.773	5069.12
608.865	4991.12
608.957	5007.12
609.049	4942.12
609.141	5129.12
609.233	5048.12
609.325	4903.12
609.417	4882.12
609.509	5154.12
609.601	5142.12
609.693	5091.12
609.784	5050.12
609.876	5030.12
609.968	5097.12
610.06	7324.12
610.152	5150.12
610.244	5228.12
610.335	4906.12
610.427	4741.12
610.519	4801.12
610.611	4904.12
610.702	4745.12
610.794	4775.12
610.886	4877.12
610.978	4757.12
611.069	5185.12
611.161	4579.12
611.253	4691.12
611.344	4485.12
611.436	4378.12
611.528	4528.12
611.62	4354.12
611.711	4225.12
611.803	4299.12
611.894	4234.12
611.986	4129.12
612.078	4152.12
612.169	4062.12
612.261	4034.12
612.352	3920.12
612.444	3890.12
612.536	3936.12
612.627	3775.12
612.719	3839.12
612.81	3618.12
612.902	3589.12
612.993	3486.12
613.085	3523.12
613.176	3307.12
613.268	3406.12
613.359	3349.12
613.451	3308.12
613.542	3233.12
613.634	3199.12
613.725	3168.12
613.816	3175.12
613.908	3005.12
613.999	2913.12
614.091	2777.12
614.182	2775.12
614.273	2820.12
614.365	2643.12
614.456	2566.12
614.547	2600.12
614.639	2413.12
614.73	2416.12
614.821	2529.12
614.913	2318.12
615.004	2219.12
615.095	2180.12
615.187	2079.12
