Data from 21g_HRC06701__116__360.txt Node

Date: Thu Apr 18 02:09:35 CDT 2024
User: Estudiantes 2
Spectrometer: HR+C0670
Trigger mode: 4
Integration Time (sec): 1.000000E0
Scans to average: 1
Electric dark correction enabled: true
Nonlinearity correction enabled: false
Boxcar width: 0
XAxis mode: Wavelengths
Number of Pixels in Spectrum: 2048
>>>>>Begin Spectral Data<<<<<
407.81	-152.94
407.921	-152.94
408.032	-152.94
408.143	-142.94
408.254	-125.94
408.365	25.06
408.476	235.06
408.587	-13.94
408.699	17.06
408.81	-29.94
408.921	-61.94
409.032	7.06
409.143	30.06
409.254	9.06
409.365	143.06
409.476	-39.94
409.587	14.06
409.698	87.06
409.809	108.06
409.92	-52.94
410.031	-36.94
410.142	85.06
410.253	-10.94
410.364	20.06
410.475	197.06
410.585	966.06
410.696	1062.06
410.807	1086.06
410.918	987.06
411.029	1099.06
411.14	1129.06
411.251	1089.06
411.362	1109.06
411.472	1164.06
411.583	1173.06
411.694	1166.06
411.805	1128.06
411.916	1137.06
412.026	1215.06
412.137	1136.06
412.248	1152.06
412.359	1100.06
412.47	1061.06
412.58	1046.06
412.691	1117.06
412.802	1091.06
412.912	1114.06
413.023	1144.06
413.134	1074.06
413.245	1167.06
413.355	1118.06
413.466	1102.06
413.577	1081.06
413.687	1234.06
413.798	1004.06
413.909	1163.06
414.019	1084.06
414.13	1146.06
414.24	1052.06
414.351	1171.06
414.462	1325.06
414.572	1141.06
414.683	1152.06
414.793	1184.06
414.904	1449.06
415.014	1121.06
415.125	1084.06
415.235	1114.06
415.346	1205.06
415.456	1285.06
415.567	1136.06
415.677	1067.06
415.788	1154.06
415.898	1102.06
416.009	1068.06
416.119	1152.06
416.23	1204.06
416.34	1059.06
416.45	1148.06
416.561	1859.06
416.671	1213.06
416.782	1041.06
416.892	1130.06
417.002	1177.06
417.113	1229.06
417.223	1205.06
417.333	1140.06
417.444	1143.06
417.554	1204.06
417.664	1285.06
417.775	1106.06
417.885	1168.06
417.995	1217.06
418.106	1351.06
418.216	1291.06
418.326	1301.06
418.436	1282.06
418.547	1244.06
418.657	1223.06
418.767	1465.06
418.877	1315.06
418.987	1302.06
419.098	1390.06
419.208	1302.06
419.318	1366.06
419.428	1396.06
419.538	1300.06
419.648	1349.06
419.759	1379.06
419.869	1377.06
419.979	1247.06
420.089	1293.06
420.199	1318.06
420.309	1340.06
420.419	1353.06
420.529	1332.06
420.639	1753.06
420.749	1426.06
420.859	1443.06
420.969	1355.06
421.079	1587.06
421.189	1456.06
421.299	1375.06
421.409	1334.06
421.519	1502.06
421.629	1561.06
421.739	1395.06
421.849	1361.06
421.959	1402.06
422.069	1467.06
422.179	1413.06
422.289	1474.06
422.399	1516.06
422.509	1538.06
422.619	4111.06
422.729	1758.06
422.838	1441.06
422.948	1585.06
423.058	1622.06
423.168	1530.06
423.278	1568.06
423.388	1665.06
423.498	1661.06
423.607	1575.06
423.717	1946.06
423.827	1869.06
423.937	1636.06
424.046	1703.06
424.156	1712.06
424.266	1609.06
424.376	1884.06
424.485	1911.06
424.595	1667.06
424.705	1657.06
424.815	1727.06
424.924	2125.06
425.034	1738.06
425.144	1699.06
425.253	1745.06
425.363	1820.06
425.473	1812.06
425.582	1678.06
425.692	1683.06
425.801	1656.06
425.911	1868.06
426.021	1753.06
426.13	1884.06
426.24	2006.06
426.349	1871.06
426.459	1798.06
426.568	1810.06
426.678	1938.06
426.787	1826.06
426.897	1842.06
427.006	1848.06
427.116	1837.06
427.225	1800.06
427.335	1978.06
427.444	1811.06
427.554	1948.06
427.663	1885.06
427.773	1822.06
427.882	1940.06
427.992	1897.06
428.101	1926.06
428.21	1911.06
428.32	2003.06
428.429	1926.06
428.539	2148.06
428.648	1950.06
428.757	2061.06
428.867	2029.06
428.976	2158.06
429.085	2117.06
429.195	2021.06
429.304	2001.06
429.413	2150.06
429.523	2119.06
429.632	2042.06
429.741	2112.06
429.85	2070.06
429.96	2125.06
430.069	2111.06
430.178	2153.06
430.287	2406.06
430.397	2142.06
430.506	2215.06
430.615	2187.06
430.724	2228.06
430.833	2227.06
430.943	2212.06
431.052	2223.06
431.161	2269.06
431.27	2268.06
431.379	2263.06
431.488	2465.06
431.597	2449.06
431.706	2440.06
431.816	2369.06
431.925	2416.06
432.034	2371.06
432.143	2471.06
432.252	2453.06
432.361	2490.06
432.47	2301.06
432.579	2387.06
432.688	2342.06
432.797	2463.06
432.906	2387.06
433.015	2522.06
433.124	2831.06
433.233	2469.06
433.342	2549.06
433.451	2435.06
433.56	2507.06
433.669	2542.06
433.778	2509.06
433.886	2508.06
433.995	2558.06
434.104	2743.06
434.213	2586.06
434.322	2601.06
434.431	2785.06
434.54	2787.06
434.649	2906.06
434.757	2958.06
434.866	2788.06
434.975	2789.06
435.084	2841.06
435.193	2634.06
435.301	2882.06
435.41	2942.06
435.519	2964.06
435.628	2441.06
435.737	2465.06
435.845	2373.06
435.954	2366.06
436.063	2346.06
436.171	2389.06
436.28	2369.06
436.389	2488.06
436.498	2410.06
436.606	2390.06
436.715	2489.06
436.823	2337.06
436.932	2230.06
437.041	2215.06
437.149	2234.06
437.258	2243.06
437.367	2169.06
437.475	2205.06
437.584	2544.06
437.692	2238.06
437.801	3741.06
437.91	2373.06
438.018	2154.06
438.127	1993.06
438.235	2252.06
438.344	2241.06
438.452	2105.06
438.561	2096.06
438.669	2194.06
438.778	2057.06
438.886	2143.06
438.995	2145.06
439.103	2110.06
439.212	2170.06
439.32	2169.06
439.428	2120.06
439.537	2116.06
439.645	2263.06
439.754	2242.06
439.862	2130.06
439.97	2181.06
440.079	2267.06
440.187	2142.06
440.295	2312.06
440.404	2297.06
440.512	2276.06
440.62	2293.06
440.729	2363.06
440.837	2401.06
440.945	3053.06
441.054	2540.06
441.162	2434.06
441.27	2547.06
441.378	2480.06
441.487	2517.06
441.595	2869.06
441.703	2658.06
441.811	2541.06
441.92	2444.06
442.028	2361.06
442.136	2468.06
442.244	2486.06
442.352	2412.06
442.461	2388.06
442.569	2356.06
442.677	2376.06
442.785	2430.06
442.893	2438.06
443.001	2324.06
443.109	2323.06
443.217	2418.06
443.325	2284.06
443.434	3007.06
443.542	2716.06
443.65	2442.06
443.758	2647.06
443.866	2567.06
443.974	2886.06
444.082	2626.06
444.19	2724.06
444.298	2796.06
444.406	2916.06
444.514	2873.06
444.622	3033.06
444.73	2941.06
444.838	2869.06
444.946	2901.06
445.054	2702.06
445.161	2598.06
445.269	2592.06
445.377	2638.06
445.485	2517.06
445.593	2531.06
445.701	2722.06
445.809	2526.06
445.917	2502.06
446.025	2443.06
446.132	2566.06
446.24	2528.06
446.348	2566.06
446.456	2362.06
446.564	2378.06
446.671	2463.06
446.779	2442.06
446.887	2422.06
446.995	2359.06
447.102	2463.06
447.21	2345.06
447.318	2401.06
447.426	2335.06
447.533	2505.06
447.641	3634.06
447.749	2533.06
447.856	2376.06
447.964	2336.06
448.072	2421.06
448.179	2326.06
448.287	2377.06
448.395	2381.06
448.502	2361.06
448.61	2381.06
448.718	2366.06
448.825	2473.06
448.933	2444.06
449.04	2373.06
449.148	2444.06
449.256	2382.06
449.363	2435.06
449.471	2474.06
449.578	2509.06
449.686	2471.06
449.793	2642.06
449.901	2538.06
450.008	2519.06
450.116	2639.06
450.223	2574.06
450.331	2572.06
450.438	2597.06
450.546	2718.06
450.653	2701.06
450.76	2747.06
450.868	2777.06
450.975	2900.06
451.083	2754.06
451.19	2782.06
451.297	2850.06
451.405	2767.06
451.512	2785.06
451.619	2959.06
451.727	2835.06
451.834	2799.06
451.941	2842.06
452.049	2827.06
452.156	2815.06
452.263	2950.06
452.371	2885.06
452.478	2932.06
452.585	3026.06
452.692	2821.06
452.8	2894.06
452.907	3069.06
453.014	2989.06
453.121	2946.06
453.229	2980.06
453.336	3086.06
453.443	3074.06
453.55	2962.06
453.657	3066.06
453.765	3119.06
453.872	3030.06
453.979	3058.06
454.086	3114.06
454.193	3189.06
454.3	2993.06
454.407	3252.06
454.514	3116.06
454.621	3083.06
454.729	3124.06
454.836	3086.06
454.943	3181.06
455.05	3178.06
455.157	3410.06
455.264	3180.06
455.371	3294.06
455.478	3277.06
455.585	4541.06
455.692	3346.06
455.799	3497.06
455.906	3374.06
456.013	3262.06
456.12	3332.06
456.227	3337.06
456.334	3363.06
456.44	3528.06
456.547	3455.06
456.654	3340.06
456.761	3382.06
456.868	3601.06
456.975	3549.06
457.082	3471.06
457.189	3449.06
457.296	3511.06
457.402	3518.06
457.509	3542.06
457.616	3675.06
457.723	3930.06
457.83	3778.06
457.936	3655.06
458.043	4124.06
458.15	3763.06
458.257	3963.06
458.363	3841.06
458.47	3970.06
458.577	4152.06
458.684	4133.06
458.79	4330.06
458.897	4421.06
459.004	4376.06
459.11	4374.06
459.217	4492.06
459.324	4566.06
459.43	4677.06
459.537	4885.06
459.644	4788.06
459.75	4711.06
459.857	5122.06
459.964	5060.06
460.07	4967.06
460.177	5068.06
460.283	5282.06
460.39	5428.06
460.496	5125.06
460.603	5214.06
460.71	5184.06
460.816	5147.06
460.923	5118.06
461.029	5122.06
461.136	5160.06
461.242	5030.06
461.349	5241.06
461.455	5121.06
461.562	5523.06
461.668	5473.06
461.774	5342.06
461.881	5463.06
461.987	5469.06
462.094	5597.06
462.2	5644.06
462.307	5696.06
462.413	5619.06
462.519	5886.06
462.626	6379.06
462.732	6357.06
462.838	6621.06
462.945	6733.06
463.051	6819.06
463.157	6563.06
463.264	6285.06
463.37	6345.06
463.476	6116.06
463.583	5931.06
463.689	5808.06
463.795	5915.06
463.901	5939.06
464.008	6108.06
464.114	5975.06
464.22	5922.06
464.326	5854.06
464.433	5699.06
464.539	5630.06
464.645	5475.06
464.751	5664.06
464.857	5362.06
464.963	5037.06
465.07	4912.06
465.176	4856.06
465.282	4640.06
465.388	4596.06
465.494	4384.06
465.6	4321.06
465.706	4108.06
465.812	4169.06
465.918	4241.06
466.024	4095.06
466.131	4056.06
466.237	3997.06
466.343	3836.06
466.449	3757.06
466.555	3721.06
466.661	3683.06
466.767	3745.06
466.873	3809.06
466.979	3814.06
467.085	3680.06
467.191	3718.06
467.296	3649.06
467.402	3551.06
467.508	3703.06
467.614	3817.06
467.72	3425.06
467.826	3419.06
467.932	3539.06
468.038	3359.06
468.144	3424.06
468.25	3440.06
468.355	3237.06
468.461	3373.06
468.567	3273.06
468.673	3317.06
468.779	3378.06
468.885	3352.06
468.99	3198.06
469.096	3219.06
469.202	3394.06
469.308	3390.06
469.413	3396.06
469.519	3437.06
469.625	3389.06
469.731	3410.06
469.836	3467.06
469.942	3692.06
470.048	3461.06
470.153	3504.06
470.259	3485.06
470.365	3568.06
470.47	3486.06
470.576	3424.06
470.682	3470.06
470.787	3344.06
470.893	3297.06
470.999	3319.06
471.104	3231.06
471.21	3209.06
471.315	3068.06
471.421	3009.06
471.527	3266.06
471.632	3150.06
471.738	3046.06
471.843	2972.06
471.949	3061.06
472.054	3052.06
472.16	2950.06
472.265	2963.06
472.371	2904.06
472.476	2882.06
472.582	2961.06
472.687	2916.06
472.793	2756.06
472.898	2783.06
473.003	2806.06
473.109	2865.06
473.214	2790.06
473.32	2806.06
473.425	2907.06
473.53	2800.06
473.636	2757.06
473.741	2774.06
473.847	2746.06
473.952	2762.06
474.057	2846.06
474.163	2884.06
474.268	2681.06
474.373	2849.06
474.478	2705.06
474.584	2719.06
474.689	2837.06
474.794	2840.06
474.9	3001.06
475.005	2730.06
475.11	2989.06
475.215	2731.06
475.321	2776.06
475.426	3020.06
475.531	2958.06
475.636	2793.06
475.741	2791.06
475.846	2938.06
475.952	2998.06
476.057	2915.06
476.162	3038.06
476.267	3018.06
476.372	3209.06
476.477	2971.06
476.582	3005.06
476.687	2894.06
476.793	2980.06
476.898	2999.06
477.003	2995.06
477.108	3095.06
477.213	3073.06
477.318	3031.06
477.423	3142.06
477.528	3269.06
477.633	3180.06
477.738	3290.06
477.843	3223.06
477.948	3205.06
478.053	3302.06
478.158	3329.06
478.263	3299.06
478.368	3425.06
478.473	3550.06
478.578	3504.06
478.682	3349.06
478.787	3527.06
478.892	3527.06
478.997	3612.06
479.102	3471.06
479.207	3521.06
479.312	3612.06
479.417	3550.06
479.521	3604.06
479.626	3685.06
479.731	3583.06
479.836	3649.06
479.941	3838.06
480.045	3881.06
480.15	3876.06
480.255	3898.06
480.36	3820.06
480.465	3880.06
480.569	4113.06
480.674	3770.06
480.779	3632.06
480.883	3712.06
480.988	3702.06
481.093	3631.06
481.197	3653.06
481.302	3640.06
481.407	3732.06
481.511	5021.06
481.616	3694.06
481.721	3684.06
481.825	3795.06
481.93	3641.06
482.035	3566.06
482.139	3698.06
482.244	3724.06
482.348	3654.06
482.453	3840.06
482.557	3821.06
482.662	3705.06
482.767	3742.06
482.871	3693.06
482.976	3915.06
483.08	3858.06
483.185	4063.06
483.289	3963.06
483.394	3963.06
483.498	3986.06
483.603	3946.06
483.707	4028.06
483.811	4130.06
483.916	4174.06
484.02	4075.06
484.125	4233.06
484.229	4291.06
484.333	4343.06
484.438	4213.06
484.542	4225.06
484.647	4359.06
484.751	4363.06
484.855	4306.06
484.96	4317.06
485.064	4458.06
485.168	4450.06
485.273	4545.06
485.377	4552.06
485.481	4764.06
485.585	4518.06
485.69	4597.06
485.794	4596.06
485.898	4562.06
486.002	4606.06
486.107	4609.06
486.211	4641.06
486.315	4673.06
486.419	4704.06
486.524	4681.06
486.628	4706.06
486.732	4663.06
486.836	4668.06
486.94	4794.06
487.044	4735.06
487.148	4635.06
487.253	4654.06
487.357	4744.06
487.461	4858.06
487.565	4737.06
487.669	4678.06
487.773	4691.06
487.877	4858.06
487.981	4868.06
488.085	4750.06
488.189	4792.06
488.293	4859.06
488.397	5322.06
488.501	4738.06
488.605	4760.06
488.709	4771.06
488.813	4687.06
488.917	4579.06
489.021	4797.06
489.125	5132.06
489.229	4761.06
489.333	5009.06
489.437	4776.06
489.541	4819.06
489.645	4869.06
489.749	4963.06
489.853	4856.06
489.956	4791.06
490.06	4845.06
490.164	4900.06
490.268	4866.06
490.372	4957.06
490.476	4902.06
490.579	4883.06
490.683	5563.06
490.787	5019.06
490.891	4856.06
490.995	4941.06
491.098	5074.06
491.202	4878.06
491.306	4873.06
491.41	4953.06
491.513	4846.06
491.617	4901.06
491.721	5167.06
491.824	5151.06
491.928	4876.06
492.032	5167.06
492.136	4937.06
492.239	4841.06
492.343	5043.06
492.446	5425.06
492.55	5070.06
492.654	4894.06
492.757	4921.06
492.861	5036.06
492.965	4926.06
493.068	4963.06
493.172	5033.06
493.275	4896.06
493.379	4979.06
493.482	5067.06
493.586	5137.06
493.689	5272.06
493.793	4959.06
493.896	5174.06
494	5103.06
494.103	5207.06
494.207	5397.06
494.31	5469.06
494.414	5110.06
494.517	5106.06
494.621	4905.06
494.724	5034.06
494.828	5042.06
494.931	4881.06
495.034	4905.06
495.138	5134.06
495.241	4889.06
495.345	5795.06
495.448	5188.06
495.551	4947.06
495.655	4947.06
495.758	4963.06
495.861	4866.06
495.965	4948.06
496.068	5038.06
496.171	5203.06
496.274	5020.06
496.378	5035.06
496.481	4975.06
496.584	5035.06
496.687	5041.06
496.791	5190.06
496.894	5147.06
496.997	5189.06
497.1	5248.06
497.204	5283.06
497.307	5187.06
497.41	5564.06
497.513	5612.06
497.616	5353.06
497.719	5554.06
497.823	5678.06
497.926	5756.06
498.029	5883.06
498.132	5997.06
498.235	6141.06
498.338	6252.06
498.441	6506.06
498.544	6559.06
498.647	6715.06
498.75	6975.06
498.853	7339.06
498.956	7384.06
499.059	7933.06
499.163	7984.06
499.266	8289.06
499.369	8697.06
499.471	8961.06
499.574	9554.06
499.677	9723.06
499.78	10347.06
499.883	10841.06
499.986	11293.06
500.089	11837.06
500.192	11823.06
500.295	11791.06
500.398	11772.06
500.501	11655.06
500.604	11098.06
500.707	10763.06
500.809	10394.06
500.912	9794.06
501.015	9333.06
501.118	9053.06
501.221	8571.06
501.324	8032.06
501.426	7795.06
501.529	7333.06
501.632	7006.06
501.735	6769.06
501.837	6616.06
501.94	6251.06
502.043	6121.06
502.146	6199.06
502.248	5921.06
502.351	5748.06
502.454	5718.06
502.557	5431.06
502.659	5358.06
502.762	5303.06
502.865	5083.06
502.967	4989.06
503.07	4975.06
503.173	5023.06
503.275	4797.06
503.378	4792.06
503.48	4710.06
503.583	4781.06
503.686	4702.06
503.788	5019.06
503.891	4702.06
503.993	4935.06
504.096	4699.06
504.198	4710.06
504.301	4665.06
504.403	4721.06
504.506	4678.06
504.608	4551.06
504.711	4481.06
504.813	4511.06
504.916	4250.06
505.018	4125.06
505.121	3979.06
505.223	4031.06
505.326	3884.06
505.428	4044.06
505.531	3881.06
505.633	3796.06
505.735	3763.06
505.838	3686.06
505.94	3623.06
506.042	3602.06
506.145	3613.06
506.247	3616.06
506.35	3478.06
506.452	3637.06
506.554	3562.06
506.656	3498.06
506.759	3478.06
506.861	3529.06
506.963	3473.06
507.066	3443.06
507.168	3537.06
507.27	3362.06
507.372	3312.06
507.475	3362.06
507.577	3435.06
507.679	3356.06
507.781	3254.06
507.883	3373.06
507.986	3219.06
508.088	3337.06
508.19	3356.06
508.292	3324.06
508.394	3169.06
508.496	3289.06
508.598	3250.06
508.701	3232.06
508.803	3282.06
508.905	3152.06
509.007	3209.06
509.109	3282.06
509.211	3226.06
509.313	3119.06
509.415	3182.06
509.517	3177.06
509.619	3082.06
509.721	3148.06
509.823	3150.06
509.925	3208.06
510.027	3079.06
510.129	3204.06
510.231	3119.06
510.333	3084.06
510.435	3107.06
510.537	3195.06
510.639	3164.06
510.741	3133.06
510.843	3212.06
510.945	3118.06
511.047	3230.06
511.148	3194.06
511.25	3062.06
511.352	3198.06
511.454	3034.06
511.556	3209.06
511.658	3149.06
511.76	3313.06
511.861	3310.06
511.963	3104.06
512.065	3114.06
512.167	3125.06
512.268	3393.06
512.37	3284.06
512.472	3239.06
512.574	3197.06
512.676	3255.06
512.777	3160.06
512.879	3159.06
512.981	3195.06
513.082	3226.06
513.184	3199.06
513.286	3663.06
513.387	3318.06
513.489	3376.06
513.591	3287.06
513.692	3384.06
513.794	3305.06
513.896	3114.06
513.997	3249.06
514.099	3223.06
514.2	3281.06
514.302	3314.06
514.404	3335.06
514.505	3334.06
514.607	3397.06
514.708	3314.06
514.81	3430.06
514.911	3453.06
515.013	3613.06
515.114	3540.06
515.216	3498.06
515.317	3516.06
515.419	3586.06
515.52	3565.06
515.622	3572.06
515.723	3659.06
515.825	3805.06
515.926	3722.06
516.027	3822.06
516.129	3782.06
516.23	3879.06
516.332	3862.06
516.433	4031.06
516.534	4118.06
516.636	4062.06
516.737	4146.06
516.838	5315.06
516.94	4465.06
517.041	4599.06
517.142	4671.06
517.244	4778.06
517.345	4679.06
517.446	4841.06
517.547	4959.06
517.649	4757.06
517.75	4813.06
517.851	4802.06
517.952	4944.06
518.054	4754.06
518.155	4687.06
518.256	4489.06
518.357	4606.06
518.458	4343.06
518.56	4362.06
518.661	4290.06
518.762	4219.06
518.863	4325.06
518.964	4278.06
519.065	4116.06
519.166	4075.06
519.268	3968.06
519.369	4325.06
519.47	3969.06
519.571	3986.06
519.672	3878.06
519.773	3811.06
519.874	3865.06
519.975	3910.06
520.076	3850.06
520.177	3884.06
520.278	3817.06
520.379	3869.06
520.48	3733.06
520.581	3722.06
520.682	3831.06
520.783	3705.06
520.884	3859.06
520.985	3843.06
521.086	3679.06
521.187	3786.06
521.288	3708.06
521.389	3764.06
521.489	3660.06
521.59	3705.06
521.691	3811.06
521.792	3674.06
521.893	3861.06
521.994	3862.06
522.095	3776.06
522.195	3797.06
522.296	3874.06
522.397	3741.06
522.498	3673.06
522.599	3665.06
522.699	3714.06
522.8	3620.06
522.901	3762.06
523.002	3765.06
523.102	3925.06
523.203	3717.06
523.304	3976.06
523.405	3633.06
523.505	3717.06
523.606	3753.06
523.707	3825.06
523.807	3779.06
523.908	3742.06
524.009	3855.06
524.109	3694.06
524.21	3711.06
524.31	3799.06
524.411	3782.06
524.512	3906.06
524.612	3856.06
524.713	3846.06
524.813	3793.06
524.914	4037.06
525.014	9537.06
525.115	4164.06
525.216	3775.06
525.316	3813.06
525.417	3741.06
525.517	3705.06
525.618	3825.06
525.718	3697.06
525.819	3782.06
525.919	3868.06
526.019	3762.06
526.12	3836.06
526.22	3823.06
526.321	3741.06
526.421	3757.06
526.522	3759.06
526.622	3762.06
526.722	3723.06
526.823	3814.06
526.923	3838.06
527.023	3836.06
527.124	3813.06
527.224	3844.06
527.324	3702.06
527.425	3822.06
527.525	3767.06
527.625	3758.06
527.726	3733.06
527.826	3926.06
527.926	3822.06
528.026	3799.06
528.127	3719.06
528.227	3808.06
528.327	3865.06
528.427	3872.06
528.528	3802.06
528.628	3915.06
528.728	3835.06
528.828	3866.06
528.928	3873.06
529.029	3823.06
529.129	3841.06
529.229	3818.06
529.329	3783.06
529.429	3929.06
529.529	3989.06
529.629	3788.06
529.729	3812.06
529.829	3923.06
529.93	3734.06
530.03	3893.06
530.13	3816.06
530.23	3787.06
530.33	3825.06
530.43	3830.06
530.53	3859.06
530.63	3761.06
530.73	3660.06
530.83	3656.06
530.93	3730.06
531.03	3678.06
531.13	3856.06
531.23	3677.06
531.33	3705.06
531.429	3807.06
531.529	3826.06
531.629	3713.06
531.729	3634.06
531.829	3653.06
531.929	3747.06
532.029	3744.06
532.129	3723.06
532.229	3748.06
532.328	3589.06
532.428	3718.06
532.528	3600.06
532.628	3535.06
532.728	3724.06
532.827	3518.06
532.927	3756.06
533.027	3642.06
533.127	3843.06
533.227	3608.06
533.326	3724.06
533.426	3592.06
533.526	3720.06
533.625	3667.06
533.725	3857.06
533.825	3632.06
533.924	3488.06
534.024	3394.06
534.124	3403.06
534.223	3497.06
534.323	3919.06
534.423	3481.06
534.522	3462.06
534.622	3388.06
534.722	3472.06
534.821	3488.06
534.921	3426.06
535.02	3395.06
535.12	3532.06
535.219	3469.06
535.319	3522.06
535.419	3398.06
535.518	3321.06
535.618	3341.06
535.717	3463.06
535.817	3183.06
535.916	3231.06
536.016	3381.06
536.115	3215.06
536.215	3232.06
536.314	3162.06
536.413	3137.06
536.513	3254.06
536.612	3225.06
536.712	3056.06
536.811	3170.06
536.91	3103.06
537.01	3076.06
537.109	3121.06
537.209	3067.06
537.308	3138.06
537.407	3027.06
537.507	3103.06
537.606	3042.06
537.705	3112.06
537.805	3082.06
537.904	3038.06
538.003	3003.06
538.102	3126.06
538.202	2978.06
538.301	3121.06
538.4	3034.06
538.499	2987.06
538.599	3017.06
538.698	3215.06
538.797	2988.06
538.896	3091.06
538.995	2992.06
539.095	2956.06
539.194	3169.06
539.293	2942.06
539.392	2960.06
539.491	3033.06
539.59	2976.06
539.689	3024.06
539.789	3021.06
539.888	2774.06
539.987	2767.06
540.086	2868.06
540.185	2893.06
540.284	2892.06
540.383	2824.06
540.482	2806.06
540.581	2864.06
540.68	2864.06
540.779	2882.06
540.878	2842.06
540.977	2884.06
541.076	2803.06
541.175	2844.06
541.274	3089.06
541.373	2898.06
541.472	2836.06
541.571	2750.06
541.67	4159.06
541.769	3034.06
541.868	2855.06
541.966	2851.06
542.065	2816.06
542.164	2796.06
542.263	2724.06
542.362	2734.06
542.461	2807.06
542.56	2742.06
542.658	2802.06
542.757	2752.06
542.856	2757.06
542.955	2674.06
543.054	2733.06
543.152	2857.06
543.251	2727.06
543.35	2893.06
543.449	2796.06
543.547	2680.06
543.646	2706.06
543.745	2833.06
543.843	2824.06
543.942	2770.06
544.041	2718.06
544.14	2741.06
544.238	2676.06
544.337	3081.06
544.436	2796.06
544.534	2857.06
544.633	2772.06
544.731	2786.06
544.83	2782.06
544.929	2794.06
545.027	2767.06
545.126	2809.06
545.224	2794.06
545.323	2801.06
545.421	2823.06
545.52	2838.06
545.619	2842.06
545.717	2763.06
545.816	2862.06
545.914	2820.06
546.013	3003.06
546.111	2950.06
546.209	2815.06
546.308	2777.06
546.406	2715.06
546.505	2864.06
546.603	2813.06
546.702	2759.06
546.8	2732.06
546.899	2747.06
546.997	2812.06
547.095	2713.06
547.194	2790.06
547.292	2838.06
547.39	2849.06
547.489	2723.06
547.587	3104.06
547.685	2670.06
547.784	3069.06
547.882	2890.06
547.98	2781.06
548.079	2865.06
548.177	2819.06
548.275	2662.06
548.373	2880.06
548.472	2773.06
548.57	2727.06
548.668	2876.06
548.766	2649.06
548.864	2959.06
548.963	2840.06
549.061	2983.06
549.159	2853.06
549.257	2897.06
549.355	2848.06
549.454	2778.06
549.552	2902.06
549.65	2782.06
549.748	2842.06
549.846	2721.06
549.944	2784.06
550.042	2756.06
550.14	2779.06
550.238	2776.06
550.336	2700.06
550.434	2685.06
550.532	2657.06
550.631	2831.06
550.729	2847.06
550.827	2782.06
550.925	2679.06
551.023	2788.06
551.121	2642.06
551.218	2706.06
551.316	2651.06
551.414	2666.06
551.512	2637.06
551.61	2827.06
551.708	2951.06
551.806	2846.06
551.904	2747.06
552.002	2839.06
552.1	2822.06
552.198	2833.06
552.296	3003.06
552.393	3098.06
552.491	3157.06
552.589	3135.06
552.687	3214.06
552.785	3125.06
552.882	3169.06
552.98	3330.06
553.078	3258.06
553.176	3232.06
553.274	3074.06
553.371	3032.06
553.469	3098.06
553.567	3006.06
553.665	2908.06
553.762	3459.06
553.86	3129.06
553.958	3077.06
554.055	2940.06
554.153	2979.06
554.251	2902.06
554.348	2893.06
554.446	2911.06
554.544	2819.06
554.641	3116.06
554.739	2789.06
554.837	2853.06
554.934	2852.06
555.032	2732.06
555.129	2688.06
555.227	3041.06
555.324	7668.06
555.422	3045.06
555.519	2738.06
555.617	2629.06
555.715	2523.06
555.812	3086.06
555.91	2571.06
556.007	2590.06
556.105	2654.06
556.202	2661.06
556.299	2490.06
556.397	2525.06
556.494	2578.06
556.592	2574.06
556.689	2594.06
556.787	2554.06
556.884	2497.06
556.981	2519.06
557.079	2529.06
557.176	2542.06
557.273	2547.06
557.371	2650.06
557.468	2547.06
557.566	2577.06
557.663	2523.06
557.76	2589.06
557.857	2592.06
557.955	2593.06
558.052	2651.06
558.149	2640.06
558.247	2628.06
558.344	2541.06
558.441	2436.06
558.538	2519.06
558.636	2531.06
558.733	2653.06
558.83	2591.06
558.927	2580.06
559.024	2620.06
559.122	2507.06
559.219	2567.06
559.316	2722.06
559.413	2676.06
559.51	2562.06
559.607	2602.06
559.704	2597.06
559.801	2654.06
559.899	2594.06
559.996	2845.06
560.093	2581.06
560.19	2501.06
560.287	2639.06
560.384	2786.06
560.481	2598.06
560.578	2582.06
560.675	2605.06
560.772	2713.06
560.869	2607.06
560.966	2743.06
561.063	2590.06
561.16	2712.06
561.257	2680.06
561.354	2605.06
561.451	2603.06
561.548	2677.06
561.645	2864.06
561.742	2661.06
561.838	2695.06
561.935	2606.06
562.032	2658.06
562.129	2701.06
562.226	2676.06
562.323	2630.06
562.42	2788.06
562.516	2636.06
562.613	2681.06
562.71	2739.06
562.807	3527.06
562.904	2732.06
563	2703.06
563.097	2785.06
563.194	2730.06
563.291	2761.06
563.387	2838.06
563.484	2832.06
563.581	2859.06
563.678	2813.06
563.774	3286.06
563.871	2883.06
563.968	2947.06
564.064	3013.06
564.161	2853.06
564.258	2972.06
564.354	3088.06
564.451	3067.06
564.548	3092.06
564.644	3164.06
564.741	3066.06
564.837	3043.06
564.934	3143.06
565.031	3257.06
565.127	3257.06
565.224	3322.06
565.32	3619.06
565.417	3347.06
565.513	3512.06
565.61	3650.06
565.706	3809.06
565.803	3698.06
565.899	3808.06
565.996	3941.06
566.092	4107.06
566.189	4106.06
566.285	4323.06
566.382	4457.06
566.478	4632.06
566.574	4794.06
566.671	4674.06
566.767	4716.06
566.864	4782.06
566.96	4781.06
567.056	4756.06
567.153	5245.06
567.249	5117.06
567.345	5216.06
567.442	5360.06
567.538	5406.06
567.634	5492.06
567.731	5490.06
567.827	5547.06
567.923	5412.06
568.019	5118.06
568.116	4946.06
568.212	4765.06
568.308	4631.06
568.404	4513.06
568.501	4239.06
568.597	4154.06
568.693	4025.06
568.789	4547.06
568.885	3754.06
568.982	3737.06
569.078	3684.06
569.174	3618.06
569.27	3425.06
569.366	3483.06
569.462	3360.06
569.558	3274.06
569.655	3316.06
569.751	3120.06
569.847	3119.06
569.943	3230.06
570.039	3106.06
570.135	3519.06
570.231	3123.06
570.327	3255.06
570.423	3139.06
570.519	3156.06
570.615	3116.06
570.711	3161.06
570.807	3157.06
570.903	3146.06
570.999	3070.06
571.095	3054.06
571.191	2959.06
571.287	2965.06
571.383	2934.06
571.479	2962.06
571.574	3068.06
571.67	2888.06
571.766	2957.06
571.862	2819.06
571.958	2719.06
572.054	2860.06
572.15	2664.06
572.246	2630.06
572.341	2724.06
572.437	2671.06
572.533	2612.06
572.629	2639.06
572.725	2587.06
572.82	2526.06
572.916	2665.06
573.012	2522.06
573.108	2655.06
573.203	2555.06
573.299	2498.06
573.395	2494.06
573.49	2393.06
573.586	2466.06
573.682	2528.06
573.778	2676.06
573.873	2484.06
573.969	2418.06
574.065	2487.06
574.16	2467.06
574.256	2455.06
574.351	2553.06
574.447	2397.06
574.543	2449.06
574.638	2584.06
574.734	2416.06
574.829	2633.06
574.925	2388.06
575.02	2369.06
575.116	2380.06
575.212	2332.06
575.307	2527.06
575.403	2335.06
575.498	2383.06
575.594	2288.06
575.689	2354.06
575.784	2316.06
575.88	2388.06
575.975	2363.06
576.071	2255.06
576.166	2277.06
576.262	2272.06
576.357	2207.06
576.452	2357.06
576.548	2269.06
576.643	2201.06
576.739	2270.06
576.834	2332.06
576.929	2229.06
577.025	2406.06
577.12	2147.06
577.215	2064.06
577.311	2173.06
577.406	2238.06
577.501	2290.06
577.597	1997.06
577.692	2234.06
577.787	2227.06
577.882	2078.06
577.978	2208.06
578.073	2123.06
578.168	2004.06
578.263	1989.06
578.358	2055.06
578.454	1995.06
578.549	1943.06
578.644	1993.06
578.739	2146.06
578.834	1992.06
578.929	1986.06
579.025	1988.06
579.12	2064.06
579.215	2197.06
579.31	2270.06
579.405	1916.06
579.5	2042.06
579.595	2044.06
579.69	1858.06
579.785	1928.06
579.88	1913.06
579.975	1945.06
580.07	1853.06
580.165	1910.06
580.26	2038.06
580.355	1953.06
580.45	1861.06
580.545	1868.06
580.64	1839.06
580.735	1961.06
580.83	1906.06
580.925	1760.06
581.02	1764.06
581.115	1840.06
581.21	1774.06
581.305	1818.06
581.4	1877.06
581.495	1808.06
581.589	1782.06
581.684	1777.06
581.779	1904.06
581.874	1731.06
581.969	1873.06
582.064	1775.06
582.158	1784.06
582.253	1693.06
582.348	1764.06
582.443	1799.06
582.537	1727.06
582.632	1957.06
582.727	1774.06
582.822	1710.06
582.916	1719.06
583.011	1756.06
583.106	1725.06
583.201	1626.06
583.295	1748.06
583.39	1681.06
583.485	1683.06
583.579	4044.06
583.674	1894.06
583.769	1913.06
583.863	1697.06
583.958	1731.06
584.052	1611.06
584.147	1674.06
584.242	1628.06
584.336	1662.06
584.431	1847.06
584.525	1685.06
584.62	1860.06
584.714	1799.06
584.809	1742.06
584.903	1665.06
584.998	1639.06
585.092	1575.06
585.187	1659.06
585.281	1511.06
585.376	1603.06
585.47	1695.06
585.565	1590.06
585.659	1565.06
585.754	1625.06
585.848	1602.06
585.942	1610.06
586.037	1605.06
586.131	2898.06
586.226	1609.06
586.32	1668.06
586.414	1537.06
586.509	1630.06
586.603	1659.06
586.697	1624.06
586.792	1581.06
586.886	1511.06
586.98	1682.06
587.075	1576.06
587.169	1562.06
587.263	1775.06
587.357	1562.06
587.452	1517.06
587.546	1720.06
587.64	1539.06
587.734	1562.06
587.829	1636.06
587.923	1568.06
588.017	1550.06
588.111	1537.06
588.205	1698.06
588.3	1566.06
588.394	1573.06
588.488	1653.06
588.582	1804.06
588.676	1990.06
588.77	2991.06
588.864	5919.06
588.958	5536.06
589.052	3939.06
589.147	2795.06
589.241	2218.06
589.335	2228.06
589.429	4002.06
589.523	4576.06
589.617	3579.06
589.711	2562.06
589.805	2003.06
589.899	1872.06
589.993	1630.06
590.087	1591.06
590.181	1525.06
590.275	1578.06
590.369	1588.06
590.462	1466.06
590.556	1510.06
590.65	1534.06
590.744	1520.06
590.838	1488.06
590.932	1511.06
591.026	1578.06
591.12	1665.06
591.214	1536.06
591.307	1589.06
591.401	1519.06
591.495	1657.06
591.589	1569.06
591.683	1584.06
591.777	1593.06
591.87	2087.06
591.964	1643.06
592.058	1587.06
592.152	1765.06
592.245	1700.06
592.339	1745.06
592.433	1833.06
592.527	1734.06
592.62	1666.06
592.714	1713.06
592.808	1909.06
592.901	1873.06
592.995	1737.06
593.089	2066.06
593.182	1876.06
593.276	1791.06
593.37	1797.06
593.463	1759.06
593.557	1795.06
593.65	1804.06
593.744	1824.06
593.837	1936.06
593.931	1734.06
594.025	5289.06
594.118	2106.06
594.212	1766.06
594.305	1693.06
594.399	1779.06
594.492	2093.06
594.586	1707.06
594.679	1601.06
594.773	1571.06
594.866	1720.06
594.96	1649.06
595.053	1527.06
595.146	1506.06
595.24	1597.06
595.333	1418.06
595.427	1376.06
595.52	1416.06
595.614	1593.06
595.707	1466.06
595.8	1501.06
595.894	1453.06
595.987	1378.06
596.08	1316.06
596.174	1753.06
596.267	1491.06
596.36	1471.06
596.454	1574.06
596.547	1406.06
596.64	1269.06
596.733	1325.06
596.827	1362.06
596.92	1281.06
597.013	1243.06
597.106	1206.06
597.2	1170.06
597.293	1206.06
597.386	1456.06
597.479	1253.06
597.572	1291.06
597.666	1249.06
597.759	1210.06
597.852	1319.06
597.945	1268.06
598.038	1198.06
598.131	1195.06
598.224	1204.06
598.317	1313.06
598.411	1228.06
598.504	1168.06
598.597	1277.06
598.69	1178.06
598.783	1174.06
598.876	1250.06
598.969	1169.06
599.062	1137.06
599.155	1302.06
599.248	1157.06
599.341	1212.06
599.434	1203.06
599.527	1235.06
599.62	1131.06
599.713	1153.06
599.806	1258.06
599.899	1337.06
599.991	1141.06
600.084	1442.06
600.177	1095.06
600.27	1103.06
600.363	1365.06
600.456	1146.06
600.549	1215.06
600.642	1114.06
600.734	1123.06
600.827	1120.06
600.92	1203.06
601.013	1106.06
601.106	1183.06
601.199	1114.06
601.291	1160.06
601.384	1101.06
601.477	1366.06
601.57	1269.06
601.662	1100.06
601.755	1130.06
601.848	1236.06
601.94	1071.06
602.033	1264.06
602.126	1167.06
602.219	1141.06
602.311	1248.06
602.404	1076.06
602.497	1124.06
602.589	1102.06
602.682	1114.06
602.774	1205.06
602.867	1105.06
602.96	1090.06
603.052	1125.06
603.145	1090.06
603.237	1069.06
603.33	1132.06
603.422	1278.06
603.515	1084.06
603.608	1161.06
603.7	1134.06
603.793	1057.06
603.885	1109.06
603.978	1153.06
604.07	1022.06
604.163	1053.06
604.255	1108.06
604.347	989.06
604.44	1023.06
604.532	1108.06
604.625	1018.06
604.717	1011.06
604.81	1131.06
604.902	1095.06
604.994	1028.06
605.087	1059.06
605.179	1072.06
605.271	1068.06
605.364	1027.06
605.456	1141.06
605.548	1043.06
605.641	1014.06
605.733	1008.06
605.825	1119.06
605.918	989.06
606.01	1204.06
606.102	1543.06
606.194	1066.06
606.287	1166.06
606.379	1084.06
606.471	1067.06
606.563	1080.06
606.655	1085.06
606.748	1150.06
606.84	999.06
606.932	1116.06
607.024	988.06
607.116	966.06
607.208	1013.06
607.301	1125.06
607.393	1034.06
607.485	1017.06
607.577	1108.06
607.669	1173.06
607.761	1071.06
607.853	1316.06
607.945	990.06
608.037	941.06
608.129	1043.06
608.221	1005.06
608.313	993.06
608.405	1060.06
608.497	1032.06
608.589	996.06
608.681	1039.06
608.773	1089.06
608.865	1033.06
608.957	1057.06
609.049	1049.06
609.141	1114.06
609.233	994.06
609.325	988.06
609.417	1018.06
609.509	1107.06
609.601	1187.06
609.693	1152.06
609.784	1012.06
609.876	1024.06
609.968	1113.06
610.06	3317.06
610.152	1245.06
610.244	1893.06
610.335	1084.06
610.427	1006.06
610.519	1045.06
610.611	1049.06
610.702	966.06
610.794	996.06
610.886	1096.06
610.978	989.06
611.069	1423.06
611.161	1086.06
611.253	1040.06
611.344	964.06
611.436	892.06
611.528	990.06
611.62	852.06
611.711	925.06
611.803	903.06
611.894	828.06
611.986	843.06
612.078	934.06
612.169	882.06
612.261	801.06
612.352	844.06
612.444	769.06
612.536	943.06
612.627	905.06
612.719	758.06
612.81	723.06
612.902	724.06
612.993	809.06
613.085	700.06
613.176	681.06
613.268	749.06
613.359	703.06
613.451	702.06
613.542	759.06
613.634	601.06
613.725	728.06
613.816	827.06
613.908	621.06
613.999	628.06
614.091	532.06
614.182	573.06
614.273	618.06
614.365	518.06
614.456	535.06
614.547	510.06
614.639	504.06
614.73	541.06
614.821	562.06
614.913	421.06
615.004	485.06
615.095	423.06
615.187	372.06
