Data from 7g_HRC06701__10__132.txt Node

Date: Thu Apr 18 01:49:59 CDT 2024
User: Estudiantes 2
Spectrometer: HR+C0670
Trigger mode: 4
Integration Time (sec): 1.000000E0
Scans to average: 1
Electric dark correction enabled: true
Nonlinearity correction enabled: false
Boxcar width: 0
XAxis mode: Wavelengths
Number of Pixels in Spectrum: 2048
>>>>>Begin Spectral Data<<<<<
407.81	-92.31
407.921	-92.31
408.032	-92.31
408.143	-138.31
408.254	-113.31
408.365	50.69
408.476	245.69
408.587	-25.31
408.699	23.69
408.81	-57.31
408.921	-68.31
409.032	-20.31
409.143	58.69
409.254	-17.31
409.365	79.69
409.476	-6.31
409.587	42.69
409.698	37.69
409.809	105.69
409.92	-48.31
410.031	-19.31
410.142	79.69
410.253	6.69
410.364	15.69
410.475	394.69
410.585	1754.69
410.696	1855.69
410.807	1801.69
410.918	1811.69
411.029	1909.69
411.14	1882.69
411.251	1920.69
411.362	1839.69
411.472	1884.69
411.583	1907.69
411.694	1903.69
411.805	1904.69
411.916	1973.69
412.026	1927.69
412.137	1910.69
412.248	1924.69
412.359	1944.69
412.47	1838.69
412.58	1845.69
412.691	1926.69
412.802	1875.69
412.912	1853.69
413.023	1938.69
413.134	1776.69
413.245	1863.69
413.355	1934.69
413.466	1797.69
413.577	1773.69
413.687	1957.69
413.798	1801.69
413.909	1883.69
414.019	1822.69
414.13	1887.69
414.24	1904.69
414.351	1853.69
414.462	2098.69
414.572	1890.69
414.683	1858.69
414.793	1886.69
414.904	2176.69
415.014	1825.69
415.125	1824.69
415.235	1873.69
415.346	1997.69
415.456	1963.69
415.567	1897.69
415.677	1828.69
415.788	1968.69
415.898	1873.69
416.009	1834.69
416.119	1839.69
416.23	1901.69
416.34	1777.69
416.45	1862.69
416.561	2476.69
416.671	1940.69
416.782	1732.69
416.892	1861.69
417.002	1947.69
417.113	1887.69
417.223	1857.69
417.333	1910.69
417.444	1870.69
417.554	1925.69
417.664	2025.69
417.775	1882.69
417.885	1971.69
417.995	1968.69
418.106	2147.69
418.216	2000.69
418.326	2039.69
418.436	2140.69
418.547	2024.69
418.657	2004.69
418.767	2206.69
418.877	2053.69
418.987	2080.69
419.098	2125.69
419.208	2102.69
419.318	2140.69
419.428	2162.69
419.538	2076.69
419.648	2072.69
419.759	2171.69
419.869	2188.69
419.979	2127.69
420.089	2104.69
420.199	2146.69
420.309	2101.69
420.419	2102.69
420.529	2161.69
420.639	2486.69
420.749	2205.69
420.859	2239.69
420.969	2197.69
421.079	2355.69
421.189	2222.69
421.299	2220.69
421.409	2120.69
421.519	2225.69
421.629	2340.69
421.739	2226.69
421.849	2202.69
421.959	2243.69
422.069	2266.69
422.179	2171.69
422.289	2323.69
422.399	2339.69
422.509	2317.69
422.619	5438.69
422.729	2664.69
422.838	2265.69
422.948	2369.69
423.058	2407.69
423.168	2450.69
423.278	2441.69
423.388	2529.69
423.498	2548.69
423.607	2411.69
423.717	2814.69
423.827	2710.69
423.937	2558.69
424.046	2607.69
424.156	2693.69
424.266	2553.69
424.376	2795.69
424.485	2702.69
424.595	2565.69
424.705	2582.69
424.815	2710.69
424.924	2912.69
425.034	2641.69
425.144	2662.69
425.253	2599.69
425.363	2716.69
425.473	2733.69
425.582	2712.69
425.692	2626.69
425.801	2655.69
425.911	2881.69
426.021	2672.69
426.13	2914.69
426.24	2922.69
426.349	2850.69
426.459	2757.69
426.568	2841.69
426.678	2946.69
426.787	2848.69
426.897	2806.69
427.006	2905.69
427.116	2967.69
427.225	2877.69
427.335	2995.69
427.444	2885.69
427.554	2977.69
427.663	3018.69
427.773	2824.69
427.882	3018.69
427.992	2941.69
428.101	3005.69
428.21	2981.69
428.32	3049.69
428.429	3065.69
428.539	3285.69
428.648	3021.69
428.757	3154.69
428.867	3114.69
428.976	3276.69
429.085	3172.69
429.195	3087.69
429.304	3082.69
429.413	3281.69
429.523	3246.69
429.632	3244.69
429.741	3236.69
429.85	3171.69
429.96	3229.69
430.069	3253.69
430.178	3313.69
430.287	3540.69
430.397	3303.69
430.506	3338.69
430.615	3236.69
430.724	3329.69
430.833	3403.69
430.943	3338.69
431.052	3355.69
431.161	3376.69
431.27	3432.69
431.379	3440.69
431.488	3572.69
431.597	3557.69
431.706	3631.69
431.816	3551.69
431.925	3542.69
432.034	3478.69
432.143	3538.69
432.252	3539.69
432.361	3594.69
432.47	3473.69
432.579	3607.69
432.688	3486.69
432.797	3493.69
432.906	3477.69
433.015	3554.69
433.124	3910.69
433.233	3594.69
433.342	3593.69
433.451	3611.69
433.56	3535.69
433.669	3578.69
433.778	3485.69
433.886	3657.69
433.995	3689.69
434.104	3742.69
434.213	3659.69
434.322	3686.69
434.431	3876.69
434.54	3835.69
434.649	3984.69
434.757	3991.69
434.866	3750.69
434.975	3846.69
435.084	3911.69
435.193	3699.69
435.301	3899.69
435.41	4066.69
435.519	3909.69
435.628	3497.69
435.737	3416.69
435.845	3379.69
435.954	3304.69
436.063	3372.69
436.171	3346.69
436.28	3318.69
436.389	3484.69
436.498	3333.69
436.606	3305.69
436.715	3484.69
436.823	3320.69
436.932	3246.69
437.041	3207.69
437.149	3253.69
437.258	3207.69
437.367	3086.69
437.475	3079.69
437.584	3366.69
437.692	3104.69
437.801	4580.69
437.91	3311.69
438.018	3055.69
438.127	3046.69
438.235	3144.69
438.344	3093.69
438.452	3037.69
438.561	2992.69
438.669	2998.69
438.778	2948.69
438.886	3033.69
438.995	2969.69
439.103	3006.69
439.212	3041.69
439.32	2984.69
439.428	2828.69
439.537	3006.69
439.645	3159.69
439.754	3089.69
439.862	2968.69
439.97	3066.69
440.079	3023.69
440.187	2913.69
440.295	3154.69
440.404	3154.69
440.512	3084.69
440.62	3111.69
440.729	3235.69
440.837	3108.69
440.945	3797.69
441.054	3314.69
441.162	3097.69
441.27	3341.69
441.378	3408.69
441.487	3420.69
441.595	3725.69
441.703	3476.69
441.811	3419.69
441.92	3373.69
442.028	3151.69
442.136	3377.69
442.244	3246.69
442.352	3258.69
442.461	3196.69
442.569	3184.69
442.677	3191.69
442.785	3278.69
442.893	3217.69
443.001	3164.69
443.109	3163.69
443.217	3186.69
443.325	3185.69
443.434	3733.69
443.542	3582.69
443.65	3285.69
443.758	3441.69
443.866	3423.69
443.974	3668.69
444.082	3404.69
444.19	3604.69
444.298	3564.69
444.406	3673.69
444.514	3679.69
444.622	3860.69
444.73	3761.69
444.838	3703.69
444.946	3731.69
445.054	3444.69
445.161	3523.69
445.269	3437.69
445.377	3356.69
445.485	3330.69
445.593	3446.69
445.701	3547.69
445.809	3339.69
445.917	3401.69
446.025	3251.69
446.132	3363.69
446.24	3355.69
446.348	3305.69
446.456	3232.69
446.564	3236.69
446.671	3288.69
446.779	3241.69
446.887	3167.69
446.995	3266.69
447.102	3248.69
447.21	3211.69
447.318	3213.69
447.426	3180.69
447.533	3397.69
447.641	4340.69
447.749	3331.69
447.856	3160.69
447.964	3229.69
448.072	3235.69
448.179	3205.69
448.287	3212.69
448.395	3344.69
448.502	3167.69
448.61	3230.69
448.718	3261.69
448.825	3294.69
448.933	3198.69
449.04	3255.69
449.148	3312.69
449.256	3292.69
449.363	3358.69
449.471	3398.69
449.578	3402.69
449.686	3338.69
449.793	3618.69
449.901	3461.69
450.008	3470.69
450.116	3541.69
450.223	3463.69
450.331	3555.69
450.438	3642.69
450.546	3729.69
450.653	3681.69
450.76	3685.69
450.868	3798.69
450.975	3885.69
451.083	3713.69
451.19	3795.69
451.297	3643.69
451.405	3791.69
451.512	3837.69
451.619	3892.69
451.727	3876.69
451.834	3732.69
451.941	3791.69
452.049	3723.69
452.156	3828.69
452.263	3989.69
452.371	3831.69
452.478	3846.69
452.585	4109.69
452.692	3810.69
452.8	3856.69
452.907	4147.69
453.014	3967.69
453.121	3956.69
453.229	4007.69
453.336	4035.69
453.443	4073.69
453.55	4004.69
453.657	4076.69
453.765	4209.69
453.872	3956.69
453.979	4229.69
454.086	4131.69
454.193	4100.69
454.3	4072.69
454.407	4245.69
454.514	4266.69
454.621	4090.69
454.729	4132.69
454.836	4158.69
454.943	4266.69
455.05	4248.69
455.157	4292.69
455.264	4145.69
455.371	4317.69
455.478	4251.69
455.585	5441.69
455.692	4403.69
455.799	4394.69
455.906	4218.69
456.013	4320.69
456.12	4356.69
456.227	4351.69
456.334	4415.69
456.44	4620.69
456.547	4432.69
456.654	4346.69
456.761	4552.69
456.868	4519.69
456.975	4494.69
457.082	4490.69
457.189	4480.69
457.296	4447.69
457.402	4571.69
457.509	4436.69
457.616	4630.69
457.723	4893.69
457.83	4798.69
457.936	4722.69
458.043	5084.69
458.15	4741.69
458.257	4911.69
458.363	4863.69
458.47	4968.69
458.577	5054.69
458.684	4909.69
458.79	5228.69
458.897	5201.69
459.004	5355.69
459.11	5250.69
459.217	5391.69
459.324	5455.69
459.43	5637.69
459.537	5763.69
459.644	5657.69
459.75	5647.69
459.857	6075.69
459.964	5850.69
460.07	5919.69
460.177	5887.69
460.283	5964.69
460.39	6131.69
460.496	5904.69
460.603	6102.69
460.71	5933.69
460.816	5962.69
460.923	5929.69
461.029	5957.69
461.136	5945.69
461.242	5919.69
461.349	5865.69
461.455	5950.69
461.562	6264.69
461.668	6176.69
461.774	6017.69
461.881	6149.69
461.987	6332.69
462.094	6250.69
462.2	6383.69
462.307	6435.69
462.413	6288.69
462.519	6529.69
462.626	6908.69
462.732	6855.69
462.838	7019.69
462.945	7269.69
463.051	7308.69
463.157	7173.69
463.264	6978.69
463.37	6842.69
463.476	6711.69
463.583	6669.69
463.689	6522.69
463.795	6507.69
463.901	6562.69
464.008	6746.69
464.114	6558.69
464.22	6561.69
464.326	6557.69
464.433	6297.69
464.539	6254.69
464.645	6062.69
464.751	6291.69
464.857	5871.69
464.963	5755.69
465.07	5731.69
465.176	5397.69
465.282	5220.69
465.388	5413.69
465.494	4992.69
465.6	4969.69
465.706	4933.69
465.812	4684.69
465.918	4833.69
466.024	4777.69
466.131	4717.69
466.237	4501.69
466.343	4450.69
466.449	4433.69
466.555	4304.69
466.661	4261.69
466.767	4331.69
466.873	4170.69
466.979	4365.69
467.085	4223.69
467.191	4307.69
467.296	4144.69
467.402	4208.69
467.508	4175.69
467.614	4236.69
467.72	4035.69
467.826	4092.69
467.932	3936.69
468.038	3889.69
468.144	3950.69
468.25	3854.69
468.355	3837.69
468.461	3953.69
468.567	3685.69
468.673	3862.69
468.779	3869.69
468.885	3816.69
468.99	3705.69
469.096	3808.69
469.202	3872.69
469.308	3864.69
469.413	3862.69
469.519	3870.69
469.625	3799.69
469.731	3861.69
469.836	3862.69
469.942	3988.69
470.048	3897.69
470.153	3876.69
470.259	3905.69
470.365	3991.69
470.47	3900.69
470.576	3882.69
470.682	3766.69
470.787	3765.69
470.893	3794.69
470.999	3713.69
471.104	3683.69
471.21	3678.69
471.315	3511.69
471.421	3444.69
471.527	3707.69
471.632	3563.69
471.738	3466.69
471.843	3444.69
471.949	3493.69
472.054	3393.69
472.16	3337.69
472.265	3414.69
472.371	3306.69
472.476	3341.69
472.582	3510.69
472.687	3346.69
472.793	3230.69
472.898	3331.69
473.003	3238.69
473.109	3223.69
473.214	3092.69
473.32	3291.69
473.425	3275.69
473.53	3210.69
473.636	3159.69
473.741	3185.69
473.847	3110.69
473.952	3168.69
474.057	3212.69
474.163	3290.69
474.268	3156.69
474.373	3145.69
474.478	3125.69
474.584	3123.69
474.689	3199.69
474.794	3221.69
474.9	3355.69
475.005	3163.69
475.11	3300.69
475.215	3102.69
475.321	3219.69
475.426	3234.69
475.531	3366.69
475.636	3119.69
475.741	3105.69
475.846	3282.69
475.952	3426.69
476.057	3295.69
476.162	3388.69
476.267	3367.69
476.372	3594.69
476.477	3269.69
476.582	3339.69
476.687	3323.69
476.793	3254.69
476.898	3277.69
477.003	3351.69
477.108	3300.69
477.213	3246.69
477.318	3391.69
477.423	3446.69
477.528	3519.69
477.633	3510.69
477.738	3580.69
477.843	3520.69
477.948	3571.69
478.053	3588.69
478.158	3567.69
478.263	3638.69
478.368	3665.69
478.473	3763.69
478.578	3674.69
478.682	3621.69
478.787	3777.69
478.892	3685.69
478.997	3848.69
479.102	3861.69
479.207	3714.69
479.312	3951.69
479.417	3835.69
479.521	3700.69
479.626	3899.69
479.731	4052.69
479.836	3903.69
479.941	4046.69
480.045	4114.69
480.15	4038.69
480.255	4088.69
480.36	4029.69
480.465	4145.69
480.569	4258.69
480.674	4054.69
480.779	3917.69
480.883	3928.69
480.988	3931.69
481.093	4041.69
481.197	3907.69
481.302	3922.69
481.407	3918.69
481.511	5154.69
481.616	3981.69
481.721	3972.69
481.825	4163.69
481.93	3877.69
482.035	3882.69
482.139	4022.69
482.244	3899.69
482.348	3921.69
482.453	3993.69
482.557	4009.69
482.662	3895.69
482.767	3992.69
482.871	3956.69
482.976	3969.69
483.08	4085.69
483.185	4283.69
483.289	4037.69
483.394	4155.69
483.498	4225.69
483.603	4194.69
483.707	4237.69
483.811	4308.69
483.916	4260.69
484.02	4301.69
484.125	4453.69
484.229	4389.69
484.333	4455.69
484.438	4338.69
484.542	4355.69
484.647	4374.69
484.751	4537.69
484.855	4602.69
484.96	4435.69
485.064	4598.69
485.168	4696.69
485.273	4578.69
485.377	4598.69
485.481	4881.69
485.585	4773.69
485.69	4709.69
485.794	4708.69
485.898	4896.69
486.002	4766.69
486.107	4750.69
486.211	4947.69
486.315	4772.69
486.419	4845.69
486.524	4925.69
486.628	4817.69
486.732	4855.69
486.836	4927.69
486.94	5009.69
487.044	4874.69
487.148	4698.69
487.253	4748.69
487.357	4871.69
487.461	5006.69
487.565	4940.69
487.669	4832.69
487.773	4755.69
487.877	4946.69
487.981	4873.69
488.085	4916.69
488.189	4909.69
488.293	4980.69
488.397	5313.69
488.501	4911.69
488.605	4913.69
488.709	4952.69
488.813	4887.69
488.917	4927.69
489.021	4819.69
489.125	5137.69
489.229	4962.69
489.333	5045.69
489.437	5018.69
489.541	4958.69
489.645	4825.69
489.749	4906.69
489.853	4915.69
489.956	5033.69
490.06	5012.69
490.164	5005.69
490.268	4895.69
490.372	4976.69
490.476	4996.69
490.579	5036.69
490.683	5466.69
490.787	4992.69
490.891	5082.69
490.995	4956.69
491.098	4969.69
491.202	4932.69
491.306	5044.69
491.41	4965.69
491.513	4920.69
491.617	5120.69
491.721	5090.69
491.824	5107.69
491.928	5102.69
492.032	5216.69
492.136	5034.69
492.239	4927.69
492.343	5130.69
492.446	5382.69
492.55	5079.69
492.654	4953.69
492.757	4927.69
492.861	5066.69
492.965	5060.69
493.068	4992.69
493.172	5109.69
493.275	4931.69
493.379	4979.69
493.482	5115.69
493.586	5114.69
493.689	5140.69
493.793	4997.69
493.896	5129.69
494	5061.69
494.103	5103.69
494.207	5374.69
494.31	5499.69
494.414	5146.69
494.517	5062.69
494.621	5060.69
494.724	5090.69
494.828	4910.69
494.931	4968.69
495.034	4914.69
495.138	5023.69
495.241	4957.69
495.345	5749.69
495.448	5126.69
495.551	4955.69
495.655	4962.69
495.758	4842.69
495.861	4938.69
495.965	4979.69
496.068	4929.69
496.171	4947.69
496.274	4932.69
496.378	4922.69
496.481	5002.69
496.584	5043.69
496.687	5059.69
496.791	5122.69
496.894	5133.69
496.997	5076.69
497.1	5113.69
497.204	5144.69
497.307	5157.69
497.41	5347.69
497.513	5457.69
497.616	5272.69
497.719	5229.69
497.823	5408.69
497.926	5461.69
498.029	5519.69
498.132	5692.69
498.235	5726.69
498.338	5982.69
498.441	5990.69
498.544	6017.69
498.647	6310.69
498.75	6415.69
498.853	6717.69
498.956	6759.69
499.059	7113.69
499.163	7010.69
499.266	7401.69
499.369	7592.69
499.471	7878.69
499.574	8281.69
499.677	8421.69
499.78	8849.69
499.883	9144.69
499.986	9712.69
500.089	9841.69
500.192	10152.69
500.295	10290.69
500.398	10131.69
500.501	9974.69
500.604	9806.69
500.707	9331.69
500.809	8998.69
500.912	8862.69
501.015	8524.69
501.118	7908.69
501.221	7663.69
501.324	7434.69
501.426	7115.69
501.529	6720.69
501.632	6683.69
501.735	6314.69
501.837	6080.69
501.94	5977.69
502.043	5836.69
502.146	5703.69
502.248	5615.69
502.351	5551.69
502.454	5420.69
502.557	5273.69
502.659	5189.69
502.762	5003.69
502.865	4942.69
502.967	4913.69
503.07	4740.69
503.173	4785.69
503.275	4716.69
503.378	4690.69
503.48	4578.69
503.583	4569.69
503.686	4567.69
503.788	4708.69
503.891	4557.69
503.993	4684.69
504.096	4485.69
504.198	4528.69
504.301	4522.69
504.403	4532.69
504.506	4494.69
504.608	4348.69
504.711	4307.69
504.813	4310.69
504.916	4196.69
505.018	3997.69
505.121	3915.69
505.223	3941.69
505.326	3844.69
505.428	3860.69
505.531	3779.69
505.633	3760.69
505.735	3666.69
505.838	3756.69
505.94	3636.69
506.042	3630.69
506.145	3597.69
506.247	3702.69
506.35	3551.69
506.452	3631.69
506.554	3659.69
506.656	3574.69
506.759	3405.69
506.861	3502.69
506.963	3534.69
507.066	3487.69
507.168	3615.69
507.27	3477.69
507.372	3358.69
507.475	3350.69
507.577	3455.69
507.679	3395.69
507.781	3330.69
507.883	3475.69
507.986	3356.69
508.088	3298.69
508.19	3355.69
508.292	3394.69
508.394	3273.69
508.496	3228.69
508.598	3309.69
508.701	3251.69
508.803	3285.69
508.905	3214.69
509.007	3250.69
509.109	3324.69
509.211	3308.69
509.313	3227.69
509.415	3248.69
509.517	3171.69
509.619	3121.69
509.721	3209.69
509.823	3114.69
509.925	3356.69
510.027	3195.69
510.129	3175.69
510.231	3292.69
510.333	3090.69
510.435	3084.69
510.537	3288.69
510.639	3288.69
510.741	3138.69
510.843	3216.69
510.945	3276.69
511.047	3222.69
511.148	3178.69
511.25	3156.69
511.352	3067.69
511.454	3040.69
511.556	3284.69
511.658	3180.69
511.76	3245.69
511.861	3322.69
511.963	3196.69
512.065	3077.69
512.167	3125.69
512.268	3387.69
512.37	3242.69
512.472	3237.69
512.574	3368.69
512.676	3289.69
512.777	3165.69
512.879	3211.69
512.981	3105.69
513.082	3257.69
513.184	3229.69
513.286	3622.69
513.387	3251.69
513.489	3392.69
513.591	3252.69
513.692	3250.69
513.794	3337.69
513.896	3209.69
513.997	3283.69
514.099	3251.69
514.2	3382.69
514.302	3436.69
514.404	3213.69
514.505	3256.69
514.607	3403.69
514.708	3339.69
514.81	3400.69
514.911	3509.69
515.013	3486.69
515.114	3497.69
515.216	3507.69
515.317	3565.69
515.419	3454.69
515.52	3607.69
515.622	3497.69
515.723	3528.69
515.825	3723.69
515.926	3700.69
516.027	3674.69
516.129	3666.69
516.23	3759.69
516.332	3785.69
516.433	3721.69
516.534	3936.69
516.636	3998.69
516.737	3948.69
516.838	4907.69
516.94	4213.69
517.041	4181.69
517.142	4454.69
517.244	4502.69
517.345	4372.69
517.446	4470.69
517.547	4560.69
517.649	4452.69
517.75	4521.69
517.851	4581.69
517.952	4622.69
518.054	4389.69
518.155	4556.69
518.256	4308.69
518.357	4432.69
518.458	4198.69
518.56	4101.69
518.661	4089.69
518.762	4036.69
518.863	4186.69
518.964	4067.69
519.065	3940.69
519.166	3965.69
519.268	3830.69
519.369	4118.69
519.47	3934.69
519.571	3883.69
519.672	3770.69
519.773	3744.69
519.874	3770.69
519.975	3780.69
520.076	3760.69
520.177	3811.69
520.278	3738.69
520.379	3782.69
520.48	3756.69
520.581	3700.69
520.682	3646.69
520.783	3736.69
520.884	3684.69
520.985	3694.69
521.086	3759.69
521.187	3786.69
521.288	3697.69
521.389	3657.69
521.489	3722.69
521.59	3573.69
521.691	3624.69
521.792	3634.69
521.893	3726.69
521.994	3744.69
522.095	3730.69
522.195	3588.69
522.296	3764.69
522.397	3795.69
522.498	3715.69
522.599	3555.69
522.699	3699.69
522.8	3696.69
522.901	3768.69
523.002	3690.69
523.102	3955.69
523.203	3648.69
523.304	3855.69
523.405	3664.69
523.505	3708.69
523.606	3645.69
523.707	3716.69
523.807	3830.69
523.908	3709.69
524.009	3787.69
524.109	3750.69
524.21	3578.69
524.31	3769.69
524.411	3792.69
524.512	3774.69
524.612	3649.69
524.713	3875.69
524.813	3635.69
524.914	3938.69
525.014	8072.69
525.115	4034.69
525.216	3706.69
525.316	3740.69
525.417	3744.69
525.517	3694.69
525.618	3683.69
525.718	3660.69
525.819	3632.69
525.919	3744.69
526.019	3702.69
526.12	3732.69
526.22	3588.69
526.321	3667.69
526.421	3604.69
526.522	3642.69
526.622	3648.69
526.722	3627.69
526.823	3669.69
526.923	3647.69
527.023	3808.69
527.124	3675.69
527.224	3778.69
527.324	3618.69
527.425	3757.69
527.525	3578.69
527.625	3703.69
527.726	3619.69
527.826	3786.69
527.926	3723.69
528.026	3654.69
528.127	3553.69
528.227	3618.69
528.327	3854.69
528.427	3660.69
528.528	3682.69
528.628	3840.69
528.728	3570.69
528.828	3691.69
528.928	3759.69
529.029	3665.69
529.129	3712.69
529.229	3817.69
529.329	3679.69
529.429	3673.69
529.529	3793.69
529.629	3724.69
529.729	3545.69
529.829	3682.69
529.93	3671.69
530.03	3646.69
530.13	3588.69
530.23	3643.69
530.33	3687.69
530.43	3572.69
530.53	3650.69
530.63	3628.69
530.73	3433.69
530.83	3471.69
530.93	3588.69
531.03	3481.69
531.13	3509.69
531.23	3474.69
531.33	3496.69
531.429	3582.69
531.529	3621.69
531.629	3522.69
531.729	3433.69
531.829	3476.69
531.929	3491.69
532.029	3490.69
532.129	3482.69
532.229	3521.69
532.328	3486.69
532.428	3433.69
532.528	3415.69
532.628	3369.69
532.728	3408.69
532.827	3381.69
532.927	3453.69
533.027	3374.69
533.127	3488.69
533.227	3421.69
533.326	3422.69
533.426	3262.69
533.526	3421.69
533.625	3472.69
533.725	3625.69
533.825	3474.69
533.924	3283.69
534.024	3223.69
534.124	3276.69
534.223	3309.69
534.323	3645.69
534.423	3266.69
534.522	3275.69
534.622	3095.69
534.722	3247.69
534.821	3292.69
534.921	3153.69
535.02	3113.69
535.12	3264.69
535.219	3282.69
535.319	3246.69
535.419	3262.69
535.518	3042.69
535.618	3136.69
535.717	3259.69
535.817	3089.69
535.916	2943.69
536.016	3155.69
536.115	3107.69
536.215	2991.69
536.314	2935.69
536.413	2961.69
536.513	2957.69
536.612	2970.69
536.712	2956.69
536.811	2896.69
536.91	2808.69
537.01	2908.69
537.109	2964.69
537.209	2968.69
537.308	2940.69
537.407	2872.69
537.507	2873.69
537.606	2812.69
537.705	2912.69
537.805	2828.69
537.904	2802.69
538.003	2915.69
538.102	2933.69
538.202	2862.69
538.301	2924.69
538.4	2833.69
538.499	2814.69
538.599	2848.69
538.698	3078.69
538.797	2808.69
538.896	2882.69
538.995	2890.69
539.095	2718.69
539.194	2951.69
539.293	2818.69
539.392	2666.69
539.491	2685.69
539.59	2781.69
539.689	2827.69
539.789	2869.69
539.888	2621.69
539.987	2661.69
540.086	2713.69
540.185	2641.69
540.284	2757.69
540.383	2757.69
540.482	2654.69
540.581	2712.69
540.68	2645.69
540.779	2692.69
540.878	2744.69
540.977	2731.69
541.076	2701.69
541.175	2741.69
541.274	2885.69
541.373	2772.69
541.472	2711.69
541.571	2622.69
541.67	3845.69
541.769	2726.69
541.868	2698.69
541.966	2623.69
542.065	2645.69
542.164	2638.69
542.263	2588.69
542.362	2627.69
542.461	2678.69
542.56	2669.69
542.658	2580.69
542.757	2562.69
542.856	2521.69
542.955	2535.69
543.054	2492.69
543.152	2656.69
543.251	2475.69
543.35	2724.69
543.449	2693.69
543.547	2565.69
543.646	2546.69
543.745	2629.69
543.843	2687.69
543.942	2650.69
544.041	2589.69
544.14	2619.69
544.238	2558.69
544.337	2830.69
544.436	2659.69
544.534	2697.69
544.633	2662.69
544.731	2656.69
544.83	2575.69
544.929	2534.69
545.027	2601.69
545.126	2550.69
545.224	2541.69
545.323	2608.69
545.421	2627.69
545.52	2634.69
545.619	2643.69
545.717	2633.69
545.816	2652.69
545.914	2602.69
546.013	2897.69
546.111	2708.69
546.209	2582.69
546.308	2539.69
546.406	2530.69
546.505	2683.69
546.603	2603.69
546.702	2591.69
546.8	2522.69
546.899	2500.69
546.997	2633.69
547.095	2591.69
547.194	2646.69
547.292	2611.69
547.39	2658.69
547.489	2608.69
547.587	2901.69
547.685	2639.69
547.784	2788.69
547.882	2743.69
547.98	2489.69
548.079	2550.69
548.177	2537.69
548.275	2554.69
548.373	2684.69
548.472	2564.69
548.57	2587.69
548.668	2656.69
548.766	2567.69
548.864	2783.69
548.963	2553.69
549.061	2741.69
549.159	2574.69
549.257	2645.69
549.355	2554.69
549.454	2551.69
549.552	2722.69
549.65	2617.69
549.748	2619.69
549.846	2647.69
549.944	2560.69
550.042	2537.69
550.14	2613.69
550.238	2565.69
550.336	2493.69
550.434	2508.69
550.532	2584.69
550.631	2634.69
550.729	2534.69
550.827	2631.69
550.925	2566.69
551.023	2504.69
551.121	2538.69
551.218	2499.69
551.316	2474.69
551.414	2522.69
551.512	2461.69
551.61	2566.69
551.708	2623.69
551.806	2637.69
551.904	2544.69
552.002	2547.69
552.1	2621.69
552.198	2564.69
552.296	2737.69
552.393	2809.69
552.491	2792.69
552.589	2835.69
552.687	2951.69
552.785	2771.69
552.882	2877.69
552.98	3041.69
553.078	2832.69
553.176	2834.69
553.274	2714.69
553.371	2770.69
553.469	2832.69
553.567	2773.69
553.665	2752.69
553.762	3104.69
553.86	2757.69
553.958	2851.69
554.055	2734.69
554.153	2723.69
554.251	2630.69
554.348	2651.69
554.446	2563.69
554.544	2546.69
554.641	2921.69
554.739	2532.69
554.837	2606.69
554.934	2589.69
555.032	2524.69
555.129	2452.69
555.227	2917.69
555.324	6999.69
555.422	2847.69
555.519	2527.69
555.617	2461.69
555.715	2350.69
555.812	4041.69
555.91	2499.69
556.007	2435.69
556.105	2386.69
556.202	2524.69
556.299	2373.69
556.397	2398.69
556.494	2465.69
556.592	2326.69
556.689	2452.69
556.787	2427.69
556.884	2288.69
556.981	2331.69
557.079	2351.69
557.176	2371.69
557.273	2352.69
557.371	2419.69
557.468	2395.69
557.566	2368.69
557.663	2362.69
557.76	2381.69
557.857	2355.69
557.955	2436.69
558.052	2502.69
558.149	2502.69
558.247	2458.69
558.344	2356.69
558.441	2335.69
558.538	2441.69
558.636	2346.69
558.733	2432.69
558.83	2392.69
558.927	2352.69
559.024	2425.69
559.122	2363.69
559.219	2299.69
559.316	2502.69
559.413	2444.69
559.51	2322.69
559.607	2338.69
559.704	2375.69
559.801	2358.69
559.899	2373.69
559.996	2616.69
560.093	2417.69
560.19	2312.69
560.287	2426.69
560.384	2531.69
560.481	2425.69
560.578	2393.69
560.675	2317.69
560.772	2411.69
560.869	2450.69
560.966	2601.69
561.063	2357.69
561.16	2500.69
561.257	2522.69
561.354	2439.69
561.451	2342.69
561.548	2492.69
561.645	2644.69
561.742	2402.69
561.838	2418.69
561.935	2397.69
562.032	2426.69
562.129	2473.69
562.226	2448.69
562.323	2378.69
562.42	2523.69
562.516	2509.69
562.613	2461.69
562.71	2411.69
562.807	3227.69
562.904	2426.69
563	2459.69
563.097	2537.69
563.194	2421.69
563.291	2430.69
563.387	2571.69
563.484	2575.69
563.581	2492.69
563.678	2500.69
563.774	2900.69
563.871	2525.69
563.968	2593.69
564.064	2686.69
564.161	2562.69
564.258	2614.69
564.354	2816.69
564.451	2675.69
564.548	2749.69
564.644	2711.69
564.741	2649.69
564.837	2681.69
564.934	2679.69
565.031	2797.69
565.127	2776.69
565.224	2835.69
565.32	3027.69
565.417	2843.69
565.513	2942.69
565.61	3036.69
565.706	3052.69
565.803	3095.69
565.899	3118.69
565.996	3237.69
566.092	3196.69
566.189	3296.69
566.285	3412.69
566.382	3403.69
566.478	3637.69
566.574	3759.69
566.671	3632.69
566.767	3617.69
566.864	3723.69
566.96	3762.69
567.056	3776.69
567.153	3967.69
567.249	3930.69
567.345	4075.69
567.442	4156.69
567.538	4111.69
567.634	4150.69
567.731	4129.69
567.827	4213.69
567.923	4275.69
568.019	3968.69
568.116	3907.69
568.212	3570.69
568.308	3581.69
568.404	3549.69
568.501	3374.69
568.597	3371.69
568.693	3249.69
568.789	3774.69
568.885	3057.69
568.982	2988.69
569.078	2982.69
569.174	2967.69
569.27	2723.69
569.366	2859.69
569.462	2688.69
569.558	2668.69
569.655	2679.69
569.751	2595.69
569.847	2585.69
569.943	2561.69
570.039	2477.69
570.135	2925.69
570.231	2510.69
570.327	2697.69
570.423	2573.69
570.519	2537.69
570.615	2649.69
570.711	2603.69
570.807	2580.69
570.903	2565.69
570.999	2605.69
571.095	2614.69
571.191	2500.69
571.287	2524.69
571.383	2530.69
571.479	2444.69
571.574	2496.69
571.67	2390.69
571.766	2537.69
571.862	2336.69
571.958	2201.69
572.054	2280.69
572.15	2243.69
572.246	2129.69
572.341	2296.69
572.437	2279.69
572.533	2139.69
572.629	2224.69
572.725	2154.69
572.82	2198.69
572.916	2236.69
573.012	2168.69
573.108	2236.69
573.203	2064.69
573.299	1970.69
573.395	1991.69
573.49	1973.69
573.586	1986.69
573.682	2101.69
573.778	2155.69
573.873	1974.69
573.969	2034.69
574.065	2020.69
574.16	2023.69
574.256	1981.69
574.351	2139.69
574.447	1997.69
574.543	2009.69
574.638	2125.69
574.734	2072.69
574.829	2137.69
574.925	2005.69
575.02	1958.69
575.116	1906.69
575.212	1972.69
575.307	2114.69
575.403	1923.69
575.498	1963.69
575.594	1963.69
575.689	2021.69
575.784	1912.69
575.88	1941.69
575.975	1908.69
576.071	1814.69
576.166	1875.69
576.262	1884.69
576.357	1829.69
576.452	2031.69
576.548	1883.69
576.643	1802.69
576.739	1877.69
576.834	1878.69
576.929	1828.69
577.025	2396.69
577.12	1839.69
577.215	1734.69
577.311	1848.69
577.406	1860.69
577.501	1897.69
577.597	1705.69
577.692	1928.69
577.787	1846.69
577.882	1729.69
577.978	1732.69
578.073	1756.69
578.168	1627.69
578.263	1638.69
578.358	1658.69
578.454	1623.69
578.549	1611.69
578.644	1625.69
578.739	1693.69
578.834	1604.69
578.929	1646.69
579.025	1614.69
579.12	1660.69
579.215	1859.69
579.31	1797.69
579.405	1592.69
579.5	1677.69
579.595	1636.69
579.69	1506.69
579.785	1520.69
579.88	1566.69
579.975	1525.69
580.07	1512.69
580.165	1619.69
580.26	1667.69
580.355	1566.69
580.45	1525.69
580.545	1540.69
580.64	1522.69
580.735	1575.69
580.83	1588.69
580.925	1417.69
581.02	1457.69
581.115	1510.69
581.21	1439.69
581.305	1488.69
581.4	1559.69
581.495	1477.69
581.589	1523.69
581.684	1444.69
581.779	1525.69
581.874	1482.69
581.969	1470.69
582.064	1457.69
582.158	1433.69
582.253	1383.69
582.348	1469.69
582.443	1442.69
582.537	1426.69
582.632	1681.69
582.727	1461.69
582.822	1397.69
582.916	1395.69
583.011	1367.69
583.106	1473.69
583.201	1355.69
583.295	1427.69
583.39	1342.69
583.485	1324.69
583.579	3454.69
583.674	1545.69
583.769	1573.69
583.863	1478.69
583.958	1379.69
584.052	1311.69
584.147	1343.69
584.242	1297.69
584.336	1327.69
584.431	1499.69
584.525	1368.69
584.62	1442.69
584.714	1418.69
584.809	1406.69
584.903	1335.69
584.998	1367.69
585.092	1290.69
585.187	1345.69
585.281	1295.69
585.376	1360.69
585.47	1403.69
585.565	1306.69
585.659	1254.69
585.754	1310.69
585.848	1331.69
585.942	1229.69
586.037	1320.69
586.131	3416.69
586.226	1444.69
586.32	1338.69
586.414	1162.69
586.509	1365.69
586.603	1380.69
586.697	1256.69
586.792	1214.69
586.886	1157.69
586.98	1332.69
587.075	1240.69
587.169	1223.69
587.263	1439.69
587.357	1240.69
587.452	1218.69
587.546	1391.69
587.64	1177.69
587.734	1205.69
587.829	1293.69
587.923	1162.69
588.017	1193.69
588.111	1234.69
588.205	1271.69
588.3	1124.69
588.394	1104.69
588.488	1171.69
588.582	1217.69
588.676	1294.69
588.77	1501.69
588.864	2051.69
588.958	2146.69
589.052	1857.69
589.147	1563.69
589.241	1321.69
589.335	1284.69
589.429	1660.69
589.523	1748.69
589.617	1767.69
589.711	1526.69
589.805	1301.69
589.899	1306.69
589.993	1228.69
590.087	1056.69
590.181	1092.69
590.275	1230.69
590.369	1163.69
590.462	1105.69
590.556	1104.69
590.65	1176.69
590.744	1156.69
590.838	1150.69
590.932	1169.69
591.026	1139.69
591.12	1280.69
591.214	1225.69
591.307	1144.69
591.401	1210.69
591.495	1292.69
591.589	1153.69
591.683	1236.69
591.777	1305.69
591.87	1600.69
591.964	1207.69
592.058	1247.69
592.152	1313.69
592.245	1261.69
592.339	1330.69
592.433	1332.69
592.527	1275.69
592.62	1200.69
592.714	1334.69
592.808	1327.69
592.901	1349.69
592.995	1254.69
593.089	1551.69
593.182	1383.69
593.276	1278.69
593.37	1333.69
593.463	1303.69
593.557	1278.69
593.65	1334.69
593.744	1310.69
593.837	1387.69
593.931	1341.69
594.025	4777.69
594.118	1608.69
594.212	1295.69
594.305	1244.69
594.399	1252.69
594.492	1533.69
594.586	1323.69
594.679	1192.69
594.773	1165.69
594.866	1255.69
594.96	1173.69
595.053	1171.69
595.146	1172.69
595.24	1140.69
595.333	1118.69
595.427	1056.69
595.52	1103.69
595.614	1177.69
595.707	1108.69
595.8	1070.69
595.894	1077.69
595.987	1011.69
596.08	1045.69
596.174	1331.69
596.267	1072.69
596.36	1163.69
596.454	1167.69
596.547	1071.69
596.64	1023.69
596.733	1003.69
596.827	1030.69
596.92	1056.69
597.013	924.69
597.106	914.69
597.2	936.69
597.293	941.69
597.386	1074.69
597.479	1053.69
597.572	1001.69
597.666	880.69
597.759	924.69
597.852	989.69
597.945	864.69
598.038	915.69
598.131	923.69
598.224	937.69
598.317	973.69
598.411	900.69
598.504	909.69
598.597	942.69
598.69	899.69
598.783	951.69
598.876	910.69
598.969	931.69
599.062	913.69
599.155	983.69
599.248	844.69
599.341	928.69
599.434	875.69
599.527	925.69
599.62	858.69
599.713	868.69
599.806	915.69
599.899	1030.69
599.991	873.69
600.084	1037.69
600.177	828.69
600.27	893.69
600.363	1010.69
600.456	890.69
600.549	912.69
600.642	837.69
600.734	805.69
600.827	802.69
600.92	1006.69
601.013	853.69
601.106	931.69
601.199	887.69
601.291	858.69
601.384	852.69
601.477	1076.69
601.57	910.69
601.662	822.69
601.755	817.69
601.848	830.69
601.94	833.69
602.033	976.69
602.126	913.69
602.219	840.69
602.311	929.69
602.404	876.69
602.497	759.69
602.589	789.69
602.682	895.69
602.774	827.69
602.867	857.69
602.96	843.69
603.052	848.69
603.145	798.69
603.237	848.69
603.33	861.69
603.422	941.69
603.515	755.69
603.608	908.69
603.7	816.69
603.793	812.69
603.885	896.69
603.978	798.69
604.07	805.69
604.163	849.69
604.255	830.69
604.347	757.69
604.44	730.69
604.532	816.69
604.625	830.69
604.717	790.69
604.81	897.69
604.902	789.69
604.994	744.69
605.087	838.69
605.179	763.69
605.271	830.69
605.364	866.69
605.456	854.69
605.548	778.69
605.641	792.69
605.733	801.69
605.825	827.69
605.918	701.69
606.01	985.69
606.102	1193.69
606.194	844.69
606.287	1004.69
606.379	755.69
606.471	816.69
606.563	856.69
606.655	861.69
606.748	862.69
606.84	773.69
606.932	892.69
607.024	704.69
607.116	729.69
607.208	826.69
607.301	838.69
607.393	783.69
607.485	849.69
607.577	827.69
607.669	888.69
607.761	868.69
607.853	1036.69
607.945	783.69
608.037	725.69
608.129	733.69
608.221	763.69
608.313	741.69
608.405	822.69
608.497	771.69
608.589	736.69
608.681	824.69
608.773	805.69
608.865	780.69
608.957	791.69
609.049	762.69
609.141	843.69
609.233	745.69
609.325	717.69
609.417	726.69
609.509	894.69
609.601	902.69
609.693	830.69
609.784	745.69
609.876	816.69
609.968	772.69
610.06	2786.69
610.152	1024.69
610.244	1009.69
610.335	754.69
610.427	746.69
610.519	756.69
610.611	777.69
610.702	742.69
610.794	787.69
610.886	829.69
610.978	773.69
611.069	1241.69
611.161	753.69
611.253	779.69
611.344	715.69
611.436	635.69
611.528	729.69
611.62	661.69
611.711	713.69
611.803	592.69
611.894	640.69
611.986	652.69
612.078	689.69
612.169	657.69
612.261	662.69
612.352	572.69
612.444	546.69
612.536	690.69
612.627	574.69
612.719	494.69
612.81	546.69
612.902	513.69
612.993	569.69
613.085	565.69
613.176	462.69
613.268	529.69
613.359	541.69
613.451	565.69
613.542	536.69
613.634	473.69
613.725	590.69
613.816	583.69
613.908	467.69
613.999	506.69
614.091	373.69
614.182	387.69
614.273	490.69
614.365	398.69
614.456	338.69
614.547	360.69
614.639	347.69
614.73	329.69
614.821	458.69
614.913	364.69
615.004	285.69
615.095	310.69
615.187	327.69
