Data from 7g_HRC06701__54__176.txt Node

Date: Thu Apr 18 01:50:43 CDT 2024
User: Estudiantes 2
Spectrometer: HR+C0670
Trigger mode: 4
Integration Time (sec): 1.000000E0
Scans to average: 1
Electric dark correction enabled: true
Nonlinearity correction enabled: false
Boxcar width: 0
XAxis mode: Wavelengths
Number of Pixels in Spectrum: 2048
>>>>>Begin Spectral Data<<<<<
407.81	-136.69
407.921	-136.69
408.032	-136.69
408.143	-135.69
408.254	-109.69
408.365	29.31
408.476	212.31
408.587	-20.69
408.699	9.31
408.81	-7.69
408.921	-35.69
409.032	23.31
409.143	26.31
409.254	10.31
409.365	89.31
409.476	-23.69
409.587	-8.69
409.698	78.31
409.809	89.31
409.92	-43.69
410.031	1.31
410.142	62.31
410.253	-14.69
410.364	0.31
410.475	241.31
410.585	1129.31
410.696	1226.31
410.807	1197.31
410.918	1175.31
411.029	1291.31
411.14	1306.31
411.251	1230.31
411.362	1281.31
411.472	1243.31
411.583	1279.31
411.694	1292.31
411.805	1233.31
411.916	1297.31
412.026	1323.31
412.137	1241.31
412.248	1318.31
412.359	1203.31
412.47	1178.31
412.58	1148.31
412.691	1252.31
412.802	1209.31
412.912	1183.31
413.023	1270.31
413.134	1159.31
413.245	1282.31
413.355	1246.31
413.466	1192.31
413.577	1193.31
413.687	1308.31
413.798	1097.31
413.909	1242.31
414.019	1239.31
414.13	1242.31
414.24	1110.31
414.351	1311.31
414.462	1468.31
414.572	1259.31
414.683	1219.31
414.793	1256.31
414.904	1500.31
415.014	1178.31
415.125	1217.31
415.235	1227.31
415.346	1332.31
415.456	1348.31
415.567	1214.31
415.677	1218.31
415.788	1294.31
415.898	1235.31
416.009	1225.31
416.119	1223.31
416.23	1202.31
416.34	1173.31
416.45	1222.31
416.561	1862.31
416.671	1270.31
416.782	1152.31
416.892	1239.31
417.002	1262.31
417.113	1286.31
417.223	1214.31
417.333	1173.31
417.444	1223.31
417.554	1286.31
417.664	1351.31
417.775	1215.31
417.885	1259.31
417.995	1328.31
418.106	1444.31
418.216	1320.31
418.326	1405.31
418.436	1384.31
418.547	1305.31
418.657	1350.31
418.767	1486.31
418.877	1374.31
418.987	1388.31
419.098	1375.31
419.208	1425.31
419.318	1528.31
419.428	1480.31
419.538	1292.31
419.648	1474.31
419.759	1462.31
419.869	1455.31
419.979	1371.31
420.089	1458.31
420.199	1433.31
420.309	1404.31
420.419	1436.31
420.529	1421.31
420.639	1735.31
420.749	1414.31
420.859	1476.31
420.969	1419.31
421.079	1649.31
421.189	1559.31
421.299	1468.31
421.409	1368.31
421.519	1588.31
421.629	1540.31
421.739	1437.31
421.849	1463.31
421.959	1472.31
422.069	1510.31
422.179	1447.31
422.289	1495.31
422.399	1508.31
422.509	1594.31
422.619	4734.31
422.729	1856.31
422.838	1454.31
422.948	1621.31
423.058	1599.31
423.168	1541.31
423.278	1675.31
423.388	1684.31
423.498	1725.31
423.607	1645.31
423.717	1963.31
423.827	1875.31
423.937	1709.31
424.046	1761.31
424.156	1758.31
424.266	1663.31
424.376	1950.31
424.485	1778.31
424.595	1654.31
424.705	1680.31
424.815	1766.31
424.924	2124.31
425.034	1792.31
425.144	1734.31
425.253	1727.31
425.363	1814.31
425.473	1871.31
425.582	1718.31
425.692	1779.31
425.801	1728.31
425.911	1913.31
426.021	1870.31
426.13	1939.31
426.24	2015.31
426.349	1872.31
426.459	1826.31
426.568	1848.31
426.678	1904.31
426.787	1902.31
426.897	1828.31
427.006	1859.31
427.116	1964.31
427.225	1944.31
427.335	1926.31
427.444	1909.31
427.554	1965.31
427.663	1933.31
427.773	1913.31
427.882	1946.31
427.992	1969.31
428.101	1941.31
428.21	1940.31
428.32	2044.31
428.429	1990.31
428.539	2224.31
428.648	1992.31
428.757	2063.31
428.867	2031.31
428.976	2154.31
429.085	2077.31
429.195	2026.31
429.304	1990.31
429.413	2137.31
429.523	2093.31
429.632	2086.31
429.741	2128.31
429.85	2052.31
429.96	2111.31
430.069	2149.31
430.178	2126.31
430.287	2368.31
430.397	2121.31
430.506	2138.31
430.615	2106.31
430.724	2176.31
430.833	2212.31
430.943	2123.31
431.052	2206.31
431.161	2232.31
431.27	2263.31
431.379	2177.31
431.488	2458.31
431.597	2303.31
431.706	2386.31
431.816	2344.31
431.925	2332.31
432.034	2276.31
432.143	2332.31
432.252	2256.31
432.361	2350.31
432.47	2319.31
432.579	2344.31
432.688	2265.31
432.797	2294.31
432.906	2201.31
433.015	2328.31
433.124	2671.31
433.233	2414.31
433.342	2374.31
433.451	2299.31
433.56	2329.31
433.669	2321.31
433.778	2329.31
433.886	2342.31
433.995	2406.31
434.104	2559.31
434.213	2439.31
434.322	2440.31
434.431	2591.31
434.54	2491.31
434.649	2739.31
434.757	2633.31
434.866	2551.31
434.975	2615.31
435.084	2578.31
435.193	2524.31
435.301	2650.31
435.41	2735.31
435.519	2795.31
435.628	2292.31
435.737	2304.31
435.845	2172.31
435.954	2175.31
436.063	2238.31
436.171	2237.31
436.28	2185.31
436.389	2327.31
436.498	2186.31
436.606	2194.31
436.715	2338.31
436.823	2141.31
436.932	2152.31
437.041	2168.31
437.149	2166.31
437.258	2049.31
437.367	1971.31
437.475	2092.31
437.584	2284.31
437.692	2057.31
437.801	3498.31
437.91	2191.31
438.018	1954.31
438.127	1970.31
438.235	2136.31
438.344	1988.31
438.452	1988.31
438.561	1986.31
438.669	1986.31
438.778	1904.31
438.886	1981.31
438.995	1999.31
439.103	1957.31
439.212	2005.31
439.32	1999.31
439.428	1901.31
439.537	1982.31
439.645	2113.31
439.754	2078.31
439.862	1980.31
439.97	2024.31
440.079	2008.31
440.187	1894.31
440.295	2107.31
440.404	1994.31
440.512	1995.31
440.62	2089.31
440.729	2152.31
440.837	2102.31
440.945	2740.31
441.054	2217.31
441.162	2096.31
441.27	2247.31
441.378	2281.31
441.487	2250.31
441.595	2571.31
441.703	2336.31
441.811	2206.31
441.92	2190.31
442.028	2078.31
442.136	2224.31
442.244	2153.31
442.352	2133.31
442.461	2078.31
442.569	2048.31
442.677	2092.31
442.785	2203.31
442.893	2066.31
443.001	2041.31
443.109	2025.31
443.217	2104.31
443.325	2087.31
443.434	2602.31
443.542	2418.31
443.65	2121.31
443.758	2329.31
443.866	2207.31
443.974	2492.31
444.082	2301.31
444.19	2367.31
444.298	2359.31
444.406	2466.31
444.514	2551.31
444.622	2566.31
444.73	2493.31
444.838	2487.31
444.946	2499.31
445.054	2315.31
445.161	2311.31
445.269	2267.31
445.377	2282.31
445.485	2241.31
445.593	2244.31
445.701	2351.31
445.809	2224.31
445.917	2214.31
446.025	2089.31
446.132	2217.31
446.24	2222.31
446.348	2223.31
446.456	2083.31
446.564	2084.31
446.671	2147.31
446.779	2149.31
446.887	2097.31
446.995	2131.31
447.102	2128.31
447.21	2159.31
447.318	2171.31
447.426	2077.31
447.533	2331.31
447.641	3284.31
447.749	2209.31
447.856	2079.31
447.964	2066.31
448.072	2247.31
448.179	2077.31
448.287	2131.31
448.395	2180.31
448.502	2009.31
448.61	2124.31
448.718	2178.31
448.825	2144.31
448.933	2129.31
449.04	2123.31
449.148	2175.31
449.256	2167.31
449.363	2166.31
449.471	2225.31
449.578	2242.31
449.686	2116.31
449.793	2305.31
449.901	2203.31
450.008	2247.31
450.116	2336.31
450.223	2231.31
450.331	2352.31
450.438	2337.31
450.546	2428.31
450.653	2381.31
450.76	2467.31
450.868	2457.31
450.975	2648.31
451.083	2453.31
451.19	2607.31
451.297	2512.31
451.405	2475.31
451.512	2454.31
451.619	2584.31
451.727	2601.31
451.834	2531.31
451.941	2560.31
452.049	2437.31
452.156	2523.31
452.263	2578.31
452.371	2542.31
452.478	2633.31
452.585	2708.31
452.692	2525.31
452.8	2586.31
452.907	2779.31
453.014	2557.31
453.121	2513.31
453.229	2637.31
453.336	2618.31
453.443	2646.31
453.55	2619.31
453.657	2637.31
453.765	2688.31
453.872	2666.31
453.979	2759.31
454.086	2669.31
454.193	2660.31
454.3	2632.31
454.407	2725.31
454.514	2721.31
454.621	2687.31
454.729	2655.31
454.836	2743.31
454.943	2766.31
455.05	2808.31
455.157	2830.31
455.264	2698.31
455.371	2804.31
455.478	2849.31
455.585	3989.31
455.692	2913.31
455.799	2916.31
455.906	2834.31
456.013	2834.31
456.12	2732.31
456.227	2786.31
456.334	2886.31
456.44	3018.31
456.547	2919.31
456.654	2836.31
456.761	2954.31
456.868	3015.31
456.975	2992.31
457.082	2912.31
457.189	2865.31
457.296	2891.31
457.402	2907.31
457.509	2887.31
457.616	2959.31
457.723	3134.31
457.83	2999.31
457.936	3004.31
458.043	3356.31
458.15	3094.31
458.257	3103.31
458.363	3191.31
458.47	3246.31
458.577	3299.31
458.684	3153.31
458.79	3487.31
458.897	3443.31
459.004	3473.31
459.11	3502.31
459.217	3576.31
459.324	3675.31
459.43	3672.31
459.537	3996.31
459.644	3699.31
459.75	3673.31
459.857	4050.31
459.964	3780.31
460.07	3847.31
460.177	3986.31
460.283	3940.31
460.39	4030.31
460.496	3923.31
460.603	3944.31
460.71	3924.31
460.816	3854.31
460.923	3913.31
461.029	3983.31
461.136	3884.31
461.242	4005.31
461.349	3865.31
461.455	3791.31
461.562	4325.31
461.668	4049.31
461.774	3935.31
461.881	4089.31
461.987	3961.31
462.094	4156.31
462.2	4218.31
462.307	4257.31
462.413	4201.31
462.519	4229.31
462.626	4621.31
462.732	4584.31
462.838	4813.31
462.945	5085.31
463.051	4922.31
463.157	4883.31
463.264	4661.31
463.37	4521.31
463.476	4403.31
463.583	4372.31
463.689	4389.31
463.795	4278.31
463.901	4331.31
464.008	4615.31
464.114	4391.31
464.22	4365.31
464.326	4422.31
464.433	4226.31
464.539	4142.31
464.645	4038.31
464.751	4178.31
464.857	3911.31
464.963	3767.31
465.07	3732.31
465.176	3541.31
465.282	3424.31
465.388	3513.31
465.494	3301.31
465.6	3240.31
465.706	3226.31
465.812	3108.31
465.918	3151.31
466.024	3145.31
466.131	3051.31
466.237	2911.31
466.343	2905.31
466.449	2913.31
466.555	2816.31
466.661	2752.31
466.767	2776.31
466.873	2818.31
466.979	2895.31
467.085	2811.31
467.191	2837.31
467.296	2719.31
467.402	2736.31
467.508	2751.31
467.614	2842.31
467.72	2634.31
467.826	2611.31
467.932	2571.31
468.038	2551.31
468.144	2584.31
468.25	2487.31
468.355	2456.31
468.461	2602.31
468.567	2452.31
468.673	2500.31
468.779	2554.31
468.885	2501.31
468.99	2449.31
469.096	2476.31
469.202	2659.31
469.308	2542.31
469.413	2585.31
469.519	2550.31
469.625	2566.31
469.731	2566.31
469.836	2615.31
469.942	2656.31
470.048	2536.31
470.153	2592.31
470.259	2638.31
470.365	2640.31
470.47	2657.31
470.576	2622.31
470.682	2564.31
470.787	2495.31
470.893	2429.31
470.999	2469.31
471.104	2532.31
471.21	2391.31
471.315	2239.31
471.421	2260.31
471.527	2571.31
471.632	2389.31
471.738	2355.31
471.843	2230.31
471.949	2296.31
472.054	2282.31
472.16	2152.31
472.265	2215.31
472.371	2161.31
472.476	2194.31
472.582	2308.31
472.687	2148.31
472.793	2128.31
472.898	2216.31
473.003	2091.31
473.109	2096.31
473.214	2091.31
473.32	2174.31
473.425	2143.31
473.53	2098.31
473.636	2026.31
473.741	2049.31
473.847	1995.31
473.952	2133.31
474.057	2118.31
474.163	2154.31
474.268	2105.31
474.373	2055.31
474.478	2029.31
474.584	2036.31
474.689	2138.31
474.794	2070.31
474.9	2314.31
475.005	2055.31
475.11	2269.31
475.215	2024.31
475.321	2148.31
475.426	2208.31
475.531	2204.31
475.636	2130.31
475.741	2058.31
475.846	2187.31
475.952	2311.31
476.057	2161.31
476.162	2195.31
476.267	2300.31
476.372	2363.31
476.477	2137.31
476.582	2238.31
476.687	2146.31
476.793	2143.31
476.898	2227.31
477.003	2252.31
477.108	2177.31
477.213	2138.31
477.318	2240.31
477.423	2302.31
477.528	2362.31
477.633	2414.31
477.738	2411.31
477.843	2254.31
477.948	2335.31
478.053	2401.31
478.158	2372.31
478.263	2438.31
478.368	2445.31
478.473	2488.31
478.578	2505.31
478.682	2440.31
478.787	2558.31
478.892	2506.31
478.997	2587.31
479.102	2529.31
479.207	2504.31
479.312	2585.31
479.417	2634.31
479.521	2480.31
479.626	2654.31
479.731	2651.31
479.836	2568.31
479.941	2800.31
480.045	2773.31
480.15	2728.31
480.255	2745.31
480.36	2685.31
480.465	2773.31
480.569	2886.31
480.674	2692.31
480.779	2678.31
480.883	2618.31
480.988	2659.31
481.093	2677.31
481.197	2565.31
481.302	2631.31
481.407	2697.31
481.511	3799.31
481.616	2620.31
481.721	2665.31
481.825	2885.31
481.93	2530.31
482.035	2527.31
482.139	2630.31
482.244	2624.31
482.348	2670.31
482.453	2675.31
482.557	2728.31
482.662	2657.31
482.767	2694.31
482.871	2666.31
482.976	2647.31
483.08	2782.31
483.185	2921.31
483.289	2740.31
483.394	2721.31
483.498	2916.31
483.603	2795.31
483.707	2944.31
483.811	3009.31
483.916	2943.31
484.02	2880.31
484.125	2937.31
484.229	2979.31
484.333	3080.31
484.438	2997.31
484.542	2990.31
484.647	2990.31
484.751	3034.31
484.855	3082.31
484.96	3108.31
485.064	3159.31
485.168	3259.31
485.273	3153.31
485.377	3191.31
485.481	3438.31
485.585	3238.31
485.69	3212.31
485.794	3309.31
485.898	3359.31
486.002	3246.31
486.107	3300.31
486.211	3294.31
486.315	3224.31
486.419	3313.31
486.524	3346.31
486.628	3349.31
486.732	3293.31
486.836	3309.31
486.94	3378.31
487.044	3324.31
487.148	3332.31
487.253	3221.31
487.357	3311.31
487.461	3460.31
487.565	3335.31
487.669	3306.31
487.773	3233.31
487.877	3453.31
487.981	3372.31
488.085	3318.31
488.189	3368.31
488.293	3444.31
488.397	3714.31
488.501	3348.31
488.605	3273.31
488.709	3312.31
488.813	3291.31
488.917	3318.31
489.021	3281.31
489.125	3500.31
489.229	3325.31
489.333	3357.31
489.437	3342.31
489.541	3340.31
489.645	3255.31
489.749	3364.31
489.853	3460.31
489.956	3325.31
490.06	3410.31
490.164	3392.31
490.268	3337.31
490.372	3314.31
490.476	3341.31
490.579	3338.31
490.683	3933.31
490.787	3525.31
490.891	3341.31
490.995	3414.31
491.098	3305.31
491.202	3369.31
491.306	3358.31
491.41	3356.31
491.513	3324.31
491.617	3319.31
491.721	3394.31
491.824	3496.31
491.928	3434.31
492.032	3524.31
492.136	3336.31
492.239	3293.31
492.343	3413.31
492.446	3828.31
492.55	3516.31
492.654	3283.31
492.757	3304.31
492.861	3433.31
492.965	3355.31
493.068	3314.31
493.172	3248.31
493.275	3289.31
493.379	3293.31
493.482	3401.31
493.586	3471.31
493.689	3643.31
493.793	3354.31
493.896	3504.31
494	3408.31
494.103	3457.31
494.207	3716.31
494.31	3667.31
494.414	3436.31
494.517	3381.31
494.621	3349.31
494.724	3295.31
494.828	3334.31
494.931	3322.31
495.034	3264.31
495.138	3385.31
495.241	3302.31
495.345	3961.31
495.448	3392.31
495.551	3295.31
495.655	3230.31
495.758	3224.31
495.861	3208.31
495.965	3295.31
496.068	3289.31
496.171	3238.31
496.274	3250.31
496.378	3226.31
496.481	3286.31
496.584	3312.31
496.687	3299.31
496.791	3363.31
496.894	3446.31
496.997	3350.31
497.1	3277.31
497.204	3308.31
497.307	3309.31
497.41	3492.31
497.513	3596.31
497.616	3533.31
497.719	3389.31
497.823	3518.31
497.926	3597.31
498.029	3608.31
498.132	3668.31
498.235	3811.31
498.338	3890.31
498.441	3981.31
498.544	4035.31
498.647	4162.31
498.75	4308.31
498.853	4533.31
498.956	4431.31
499.059	4812.31
499.163	4792.31
499.266	4987.31
499.369	5021.31
499.471	5262.31
499.574	5643.31
499.677	5748.31
499.78	6006.31
499.883	6380.31
499.986	6905.31
500.089	7003.31
500.192	7276.31
500.295	7380.31
500.398	7203.31
500.501	7082.31
500.604	6934.31
500.707	6524.31
500.809	6335.31
500.912	6056.31
501.015	5840.31
501.118	5479.31
501.221	5172.31
501.324	4855.31
501.426	4711.31
501.529	4516.31
501.632	4404.31
501.735	4163.31
501.837	4059.31
501.94	4005.31
502.043	3793.31
502.146	3757.31
502.248	3724.31
502.351	3633.31
502.454	3534.31
502.557	3396.31
502.659	3424.31
502.762	3238.31
502.865	3202.31
502.967	3185.31
503.07	3108.31
503.173	3071.31
503.275	3085.31
503.378	2970.31
503.48	2913.31
503.583	3081.31
503.686	2984.31
503.788	3165.31
503.891	3019.31
503.993	3189.31
504.096	2947.31
504.198	2978.31
504.301	2944.31
504.403	2991.31
504.506	2897.31
504.608	2948.31
504.711	2862.31
504.813	2826.31
504.916	2765.31
505.018	2712.31
505.121	2563.31
505.223	2669.31
505.326	2564.31
505.428	2598.31
505.531	2498.31
505.633	2503.31
505.735	2372.31
505.838	2432.31
505.94	2471.31
506.042	2321.31
506.145	2413.31
506.247	2442.31
506.35	2260.31
506.452	2360.31
506.554	2432.31
506.656	2325.31
506.759	2324.31
506.861	2339.31
506.963	2234.31
507.066	2274.31
507.168	2312.31
507.27	2210.31
507.372	2155.31
507.475	2266.31
507.577	2312.31
507.679	2209.31
507.781	2156.31
507.883	2219.31
507.986	2141.31
508.088	2157.31
508.19	2215.31
508.292	2228.31
508.394	2164.31
508.496	2051.31
508.598	2186.31
508.701	2026.31
508.803	2106.31
508.905	2139.31
509.007	2117.31
509.109	2179.31
509.211	2208.31
509.313	2170.31
509.415	2009.31
509.517	2144.31
509.619	2096.31
509.721	2147.31
509.823	2055.31
509.925	2334.31
510.027	2124.31
510.129	2126.31
510.231	2127.31
510.333	2070.31
510.435	2007.31
510.537	2187.31
510.639	2160.31
510.741	2076.31
510.843	2185.31
510.945	2139.31
511.047	2138.31
511.148	2145.31
511.25	2105.31
511.352	2095.31
511.454	2041.31
511.556	2208.31
511.658	2089.31
511.76	2113.31
511.861	2255.31
511.963	2069.31
512.065	2055.31
512.167	2064.31
512.268	2252.31
512.37	2095.31
512.472	2101.31
512.574	2209.31
512.676	2161.31
512.777	2120.31
512.879	2117.31
512.981	2088.31
513.082	2134.31
513.184	2148.31
513.286	2494.31
513.387	2207.31
513.489	2276.31
513.591	2210.31
513.692	2205.31
513.794	2208.31
513.896	2150.31
513.997	2097.31
514.099	2101.31
514.2	2234.31
514.302	2178.31
514.404	2211.31
514.505	2198.31
514.607	2251.31
514.708	2217.31
514.81	2279.31
514.911	2279.31
515.013	2309.31
515.114	2273.31
515.216	2239.31
515.317	2291.31
515.419	2321.31
515.52	2449.31
515.622	2300.31
515.723	2385.31
515.825	2593.31
515.926	2438.31
516.027	2401.31
516.129	2428.31
516.23	2502.31
516.332	2511.31
516.433	2542.31
516.534	2696.31
516.636	2556.31
516.737	2618.31
516.838	3742.31
516.94	2876.31
517.041	2867.31
517.142	3065.31
517.244	3085.31
517.345	2978.31
517.446	3113.31
517.547	3146.31
517.649	3018.31
517.75	3083.31
517.851	3076.31
517.952	3187.31
518.054	3000.31
518.155	3162.31
518.256	2943.31
518.357	2988.31
518.458	2829.31
518.56	2766.31
518.661	2720.31
518.762	2726.31
518.863	2816.31
518.964	2717.31
519.065	2644.31
519.166	2618.31
519.268	2611.31
519.369	2807.31
519.47	2624.31
519.571	2589.31
519.672	2446.31
519.773	2507.31
519.874	2572.31
519.975	2476.31
520.076	2513.31
520.177	2581.31
520.278	2448.31
520.379	2516.31
520.48	2441.31
520.581	2421.31
520.682	2398.31
520.783	2522.31
520.884	2501.31
520.985	2495.31
521.086	2477.31
521.187	2477.31
521.288	2397.31
521.389	2523.31
521.489	2392.31
521.59	2415.31
521.691	2567.31
521.792	2396.31
521.893	2526.31
521.994	2560.31
522.095	2485.31
522.195	2474.31
522.296	2597.31
522.397	2572.31
522.498	2449.31
522.599	2340.31
522.699	2517.31
522.8	2440.31
522.901	2485.31
523.002	2431.31
523.102	2661.31
523.203	2435.31
523.304	2599.31
523.405	2400.31
523.505	2442.31
523.606	2473.31
523.707	2586.31
523.807	2473.31
523.908	2475.31
524.009	2557.31
524.109	2489.31
524.21	2439.31
524.31	2500.31
524.411	2577.31
524.512	2601.31
524.612	2512.31
524.713	2640.31
524.813	2492.31
524.914	2744.31
525.014	6647.31
525.115	2777.31
525.216	2478.31
525.316	2540.31
525.417	2466.31
525.517	2444.31
525.618	2437.31
525.718	2462.31
525.819	2391.31
525.919	2491.31
526.019	2512.31
526.12	2541.31
526.22	2447.31
526.321	2470.31
526.421	2355.31
526.522	2416.31
526.622	2420.31
526.722	2406.31
526.823	2467.31
526.923	2445.31
527.023	2552.31
527.124	2372.31
527.224	2520.31
527.324	2379.31
527.425	2499.31
527.525	2414.31
527.625	2440.31
527.726	2424.31
527.826	2484.31
527.926	2464.31
528.026	2521.31
528.127	2391.31
528.227	2481.31
528.327	2543.31
528.427	2481.31
528.528	2473.31
528.628	2568.31
528.728	2495.31
528.828	2514.31
528.928	2632.31
529.029	2470.31
529.129	2493.31
529.229	2541.31
529.329	2471.31
529.429	2557.31
529.529	2633.31
529.629	2573.31
529.729	2365.31
529.829	2538.31
529.93	2472.31
530.03	2449.31
530.13	2458.31
530.23	2456.31
530.33	2487.31
530.43	2290.31
530.53	2356.31
530.63	2327.31
530.73	2305.31
530.83	2321.31
530.93	2259.31
531.03	2331.31
531.13	2474.31
531.23	2371.31
531.33	2370.31
531.429	2447.31
531.529	2382.31
531.629	2334.31
531.729	2241.31
531.829	2370.31
531.929	2345.31
532.029	2380.31
532.129	2278.31
532.229	2361.31
532.328	2295.31
532.428	2380.31
532.528	2261.31
532.628	2285.31
532.728	2326.31
532.827	2232.31
532.927	2324.31
533.027	2262.31
533.127	2453.31
533.227	2345.31
533.326	2349.31
533.426	2342.31
533.526	2359.31
533.625	2439.31
533.725	2543.31
533.825	2351.31
533.924	2233.31
534.024	2119.31
534.124	2189.31
534.223	2195.31
534.323	2624.31
534.423	2230.31
534.522	2208.31
534.622	2101.31
534.722	2200.31
534.821	2191.31
534.921	2070.31
535.02	2084.31
535.12	2194.31
535.219	2238.31
535.319	2174.31
535.419	2247.31
535.518	2113.31
535.618	2071.31
535.717	2205.31
535.817	2083.31
535.916	1993.31
536.016	2171.31
536.115	2008.31
536.215	2058.31
536.314	2002.31
536.413	1954.31
536.513	1970.31
536.612	1992.31
536.712	1916.31
536.811	1913.31
536.91	1893.31
537.01	1905.31
537.109	1991.31
537.209	1961.31
537.308	1999.31
537.407	1985.31
537.507	1947.31
537.606	1956.31
537.705	1997.31
537.805	1916.31
537.904	1873.31
538.003	1991.31
538.102	1990.31
538.202	1978.31
538.301	2035.31
538.4	1938.31
538.499	1926.31
538.599	2018.31
538.698	2181.31
538.797	1951.31
538.896	2006.31
538.995	1922.31
539.095	1877.31
539.194	2092.31
539.293	1910.31
539.392	1900.31
539.491	1856.31
539.59	1864.31
539.689	2004.31
539.789	1959.31
539.888	1816.31
539.987	1694.31
540.086	1848.31
540.185	1881.31
540.284	1839.31
540.383	1847.31
540.482	1834.31
540.581	1906.31
540.68	1808.31
540.779	1870.31
540.878	1868.31
540.977	1861.31
541.076	1831.31
541.175	1911.31
541.274	2110.31
541.373	1948.31
541.472	1948.31
541.571	1775.31
541.67	2870.31
541.769	1976.31
541.868	1868.31
541.966	1894.31
542.065	1839.31
542.164	1875.31
542.263	1789.31
542.362	1783.31
542.461	1978.31
542.56	1834.31
542.658	1782.31
542.757	1778.31
542.856	1675.31
542.955	1722.31
543.054	1680.31
543.152	1856.31
543.251	1741.31
543.35	1892.31
543.449	1791.31
543.547	1780.31
543.646	1732.31
543.745	1828.31
543.843	1832.31
543.942	1806.31
544.041	1758.31
544.14	1805.31
544.238	1801.31
544.337	1952.31
544.436	1893.31
544.534	1981.31
544.633	1866.31
544.731	1818.31
544.83	1877.31
544.929	1804.31
545.027	1824.31
545.126	1788.31
545.224	1917.31
545.323	1817.31
545.421	1867.31
545.52	1845.31
545.619	1899.31
545.717	1922.31
545.816	1887.31
545.914	1838.31
546.013	2039.31
546.111	1993.31
546.209	1783.31
546.308	1858.31
546.406	1756.31
546.505	1985.31
546.603	1904.31
546.702	1814.31
546.8	1781.31
546.899	1818.31
546.997	1869.31
547.095	1808.31
547.194	1884.31
547.292	1870.31
547.39	1897.31
547.489	1793.31
547.587	2107.31
547.685	1791.31
547.784	2030.31
547.882	1907.31
547.98	1768.31
548.079	1886.31
548.177	1827.31
548.275	1729.31
548.373	1937.31
548.472	1867.31
548.57	1854.31
548.668	1855.31
548.766	1791.31
548.864	1990.31
548.963	1826.31
549.061	1922.31
549.159	1761.31
549.257	1754.31
549.355	1783.31
549.454	1840.31
549.552	1945.31
549.65	1810.31
549.748	1782.31
549.846	1833.31
549.944	1789.31
550.042	1756.31
550.14	1848.31
550.238	1813.31
550.336	1769.31
550.434	1821.31
550.532	1732.31
550.631	1847.31
550.729	1775.31
550.827	1798.31
550.925	1721.31
551.023	1761.31
551.121	1740.31
551.218	1685.31
551.316	1690.31
551.414	1714.31
551.512	1684.31
551.61	1742.31
551.708	1865.31
551.806	1764.31
551.904	1749.31
552.002	1724.31
552.1	1805.31
552.198	1744.31
552.296	1926.31
552.393	2001.31
552.491	2005.31
552.589	2016.31
552.687	2023.31
552.785	1952.31
552.882	2064.31
552.98	2212.31
553.078	2022.31
553.176	2014.31
553.274	1929.31
553.371	1949.31
553.469	1968.31
553.567	1929.31
553.665	1907.31
553.762	2262.31
553.86	1997.31
553.958	1961.31
554.055	1917.31
554.153	1941.31
554.251	1881.31
554.348	1896.31
554.446	1822.31
554.544	1839.31
554.641	2124.31
554.739	1775.31
554.837	1843.31
554.934	1799.31
555.032	1735.31
555.129	1786.31
555.227	2094.31
555.324	5481.31
555.422	2033.31
555.519	1836.31
555.617	1743.31
555.715	1572.31
555.812	2047.31
555.91	1654.31
556.007	1731.31
556.105	1640.31
556.202	1714.31
556.299	1606.31
556.397	1690.31
556.494	1720.31
556.592	1680.31
556.689	1717.31
556.787	1668.31
556.884	1556.31
556.981	1671.31
557.079	1675.31
557.176	1672.31
557.273	1638.31
557.371	1802.31
557.468	1684.31
557.566	1668.31
557.663	1639.31
557.76	1766.31
557.857	1602.31
557.955	1677.31
558.052	1757.31
558.149	1783.31
558.247	1837.31
558.344	1687.31
558.441	1626.31
558.538	1671.31
558.636	1695.31
558.733	1723.31
558.83	1650.31
558.927	1668.31
559.024	1713.31
559.122	1639.31
559.219	1629.31
559.316	1796.31
559.413	1768.31
559.51	1604.31
559.607	1701.31
559.704	1724.31
559.801	1672.31
559.899	1661.31
559.996	1857.31
560.093	1672.31
560.19	1627.31
560.287	1754.31
560.384	1775.31
560.481	1657.31
560.578	1700.31
560.675	1594.31
560.772	1667.31
560.869	1742.31
560.966	1823.31
561.063	1673.31
561.16	1833.31
561.257	1671.31
561.354	1678.31
561.451	1724.31
561.548	1732.31
561.645	1894.31
561.742	1665.31
561.838	1735.31
561.935	1635.31
562.032	1645.31
562.129	1792.31
562.226	1635.31
562.323	1644.31
562.42	1745.31
562.516	1730.31
562.613	1681.31
562.71	1732.31
562.807	2396.31
562.904	1693.31
563	1756.31
563.097	1789.31
563.194	1682.31
563.291	1688.31
563.387	1754.31
563.484	1725.31
563.581	1703.31
563.678	1740.31
563.774	2119.31
563.871	1735.31
563.968	1721.31
564.064	1810.31
564.161	1805.31
564.258	1757.31
564.354	1913.31
564.451	1784.31
564.548	1845.31
564.644	1877.31
564.741	1840.31
564.837	1823.31
564.934	1852.31
565.031	1828.31
565.127	1872.31
565.224	1980.31
565.32	2079.31
565.417	1981.31
565.513	2030.31
565.61	2144.31
565.706	2178.31
565.803	2164.31
565.899	2216.31
565.996	2174.31
566.092	2220.31
566.189	2333.31
566.285	2359.31
566.382	2411.31
566.478	2614.31
566.574	2642.31
566.671	2625.31
566.767	2624.31
566.864	2688.31
566.96	2633.31
567.056	2551.31
567.153	2972.31
567.249	2744.31
567.345	2838.31
567.442	2976.31
567.538	2967.31
567.634	2965.31
567.731	2990.31
567.827	3052.31
567.923	3038.31
568.019	2769.31
568.116	2734.31
568.212	2621.31
568.308	2613.31
568.404	2506.31
568.501	2352.31
568.597	2281.31
568.693	2174.31
568.789	2745.31
568.885	2095.31
568.982	2084.31
569.078	1999.31
569.174	1991.31
569.27	1898.31
569.366	1989.31
569.462	1906.31
569.558	1828.31
569.655	1844.31
569.751	1750.31
569.847	1759.31
569.943	1798.31
570.039	1665.31
570.135	2167.31
570.231	1793.31
570.327	1874.31
570.423	1757.31
570.519	1806.31
570.615	1791.31
570.711	1798.31
570.807	1819.31
570.903	1758.31
570.999	1727.31
571.095	1790.31
571.191	1755.31
571.287	1721.31
571.383	1798.31
571.479	1695.31
571.574	1733.31
571.67	1589.31
571.766	1773.31
571.862	1579.31
571.958	1530.31
572.054	1599.31
572.15	1499.31
572.246	1452.31
572.341	1584.31
572.437	1592.31
572.533	1481.31
572.629	1541.31
572.725	1555.31
572.82	1413.31
572.916	1505.31
573.012	1515.31
573.108	1466.31
573.203	1412.31
573.299	1362.31
573.395	1404.31
573.49	1317.31
573.586	1349.31
573.682	1480.31
573.778	1496.31
573.873	1329.31
573.969	1397.31
574.065	1354.31
574.16	1320.31
574.256	1404.31
574.351	1484.31
574.447	1304.31
574.543	1389.31
574.638	1512.31
574.734	1397.31
574.829	1578.31
574.925	1472.31
575.02	1373.31
575.116	1347.31
575.212	1404.31
575.307	1485.31
575.403	1312.31
575.498	1417.31
575.594	1343.31
575.689	1339.31
575.784	1349.31
575.88	1387.31
575.975	1375.31
576.071	1274.31
576.166	1284.31
576.262	1292.31
576.357	1261.31
576.452	1461.31
576.548	1303.31
576.643	1259.31
576.739	1340.31
576.834	1337.31
576.929	1300.31
577.025	1910.31
577.12	1307.31
577.215	1218.31
577.311	1254.31
577.406	1369.31
577.501	1409.31
577.597	1130.31
577.692	1390.31
577.787	1313.31
577.882	1205.31
577.978	1254.31
578.073	1193.31
578.168	1152.31
578.263	1170.31
578.358	1189.31
578.454	1076.31
578.549	1092.31
578.644	1124.31
578.739	1190.31
578.834	1130.31
578.929	1117.31
579.025	1109.31
579.12	1145.31
579.215	1380.31
579.31	1261.31
579.405	1069.31
579.5	1217.31
579.595	1133.31
579.69	1061.31
579.785	1108.31
579.88	1129.31
579.975	1098.31
580.07	1032.31
580.165	1110.31
580.26	1176.31
580.355	1086.31
580.45	1063.31
580.545	1028.31
580.64	1091.31
580.735	1189.31
580.83	1150.31
580.925	1047.31
581.02	991.31
581.115	1060.31
581.21	1000.31
581.305	1054.31
581.4	1113.31
581.495	1052.31
581.589	1052.31
581.684	1031.31
581.779	1104.31
581.874	1075.31
581.969	1067.31
582.064	999.31
582.158	975.31
582.253	943.31
582.348	1064.31
582.443	1027.31
582.537	997.31
582.632	1268.31
582.727	988.31
582.822	1016.31
582.916	1001.31
583.011	969.31
583.106	1078.31
583.201	989.31
583.295	1048.31
583.39	944.31
583.485	934.31
583.579	2882.31
583.674	1160.31
583.769	1208.31
583.863	1052.31
583.958	953.31
584.052	892.31
584.147	980.31
584.242	904.31
584.336	912.31
584.431	1068.31
584.525	894.31
584.62	1053.31
584.714	1010.31
584.809	1013.31
584.903	971.31
584.998	1012.31
585.092	893.31
585.187	917.31
585.281	858.31
585.376	926.31
585.47	938.31
585.565	931.31
585.659	893.31
585.754	909.31
585.848	999.31
585.942	881.31
586.037	887.31
586.131	2950.31
586.226	1064.31
586.32	1010.31
586.414	851.31
586.509	1014.31
586.603	1009.31
586.697	883.31
586.792	845.31
586.886	866.31
586.98	967.31
587.075	865.31
587.169	855.31
587.263	1041.31
587.357	881.31
587.452	807.31
587.546	1005.31
587.64	873.31
587.734	867.31
587.829	934.31
587.923	815.31
588.017	823.31
588.111	888.31
588.205	942.31
588.3	839.31
588.394	817.31
588.488	834.31
588.582	858.31
588.676	916.31
588.77	1144.31
588.864	1718.31
588.958	1741.31
589.052	1547.31
589.147	1213.31
589.241	1062.31
589.335	1051.31
589.429	1271.31
589.523	1436.31
589.617	1368.31
589.711	1152.31
589.805	988.31
589.899	1014.31
589.993	876.31
590.087	759.31
590.181	782.31
590.275	866.31
590.369	846.31
590.462	799.31
590.556	814.31
590.65	784.31
590.744	788.31
590.838	789.31
590.932	801.31
591.026	847.31
591.12	974.31
591.214	876.31
591.307	776.31
591.401	822.31
591.495	919.31
591.589	803.31
591.683	846.31
591.777	927.31
591.87	1159.31
591.964	862.31
592.058	835.31
592.152	943.31
592.245	856.31
592.339	943.31
592.433	1049.31
592.527	897.31
592.62	890.31
592.714	997.31
592.808	981.31
592.901	977.31
592.995	956.31
593.089	1109.31
593.182	972.31
593.276	938.31
593.37	903.31
593.463	927.31
593.557	911.31
593.65	948.31
593.744	941.31
593.837	1009.31
593.931	983.31
594.025	4399.31
594.118	1285.31
594.212	927.31
594.305	848.31
594.399	982.31
594.492	1237.31
594.586	942.31
594.679	860.31
594.773	795.31
594.866	919.31
594.96	924.31
595.053	830.31
595.146	847.31
595.24	749.31
595.333	746.31
595.427	815.31
595.52	733.31
595.614	881.31
595.707	817.31
595.8	743.31
595.894	747.31
595.987	691.31
596.08	686.31
596.174	1004.31
596.267	854.31
596.36	895.31
596.454	841.31
596.547	751.31
596.64	686.31
596.733	653.31
596.827	752.31
596.92	706.31
597.013	582.31
597.106	631.31
597.2	622.31
597.293	655.31
597.386	855.31
597.479	756.31
597.572	747.31
597.666	605.31
597.759	641.31
597.852	788.31
597.945	602.31
598.038	630.31
598.131	698.31
598.224	621.31
598.317	727.31
598.411	679.31
598.504	612.31
598.597	630.31
598.69	624.31
598.783	628.31
598.876	680.31
598.969	660.31
599.062	656.31
599.155	676.31
599.248	582.31
599.341	706.31
599.434	632.31
599.527	653.31
599.62	643.31
599.713	610.31
599.806	682.31
599.899	777.31
599.991	641.31
600.084	857.31
600.177	597.31
600.27	599.31
600.363	782.31
600.456	583.31
600.549	725.31
600.642	557.31
600.734	588.31
600.827	599.31
600.92	766.31
601.013	615.31
601.106	678.31
601.199	644.31
601.291	597.31
601.384	621.31
601.477	809.31
601.57	707.31
601.662	587.31
601.755	668.31
601.848	638.31
601.94	596.31
602.033	803.31
602.126	612.31
602.219	557.31
602.311	715.31
602.404	631.31
602.497	587.31
602.589	606.31
602.682	685.31
602.774	632.31
602.867	574.31
602.96	648.31
603.052	597.31
603.145	582.31
603.237	663.31
603.33	607.31
603.422	764.31
603.515	562.31
603.608	695.31
603.7	587.31
603.793	545.31
603.885	641.31
603.978	568.31
604.07	563.31
604.163	581.31
604.255	593.31
604.347	592.31
604.44	547.31
604.532	616.31
604.625	573.31
604.717	546.31
604.81	650.31
604.902	565.31
604.994	528.31
605.087	608.31
605.179	536.31
605.271	599.31
605.364	621.31
605.456	624.31
605.548	550.31
605.641	596.31
605.733	574.31
605.825	576.31
605.918	533.31
606.01	733.31
606.102	954.31
606.194	615.31
606.287	782.31
606.379	585.31
606.471	584.31
606.563	659.31
606.655	634.31
606.748	626.31
606.84	632.31
606.932	689.31
607.024	551.31
607.116	557.31
607.208	557.31
607.301	628.31
607.393	593.31
607.485	647.31
607.577	627.31
607.669	687.31
607.761	689.31
607.853	828.31
607.945	516.31
608.037	525.31
608.129	569.31
608.221	510.31
608.313	541.31
608.405	633.31
608.497	594.31
608.589	524.31
608.681	602.31
608.773	612.31
608.865	614.31
608.957	620.31
609.049	549.31
609.141	649.31
609.233	584.31
609.325	508.31
609.417	438.31
609.509	615.31
609.601	703.31
609.693	595.31
609.784	554.31
609.876	605.31
609.968	589.31
610.06	2575.31
610.152	814.31
610.244	794.31
610.335	566.31
610.427	613.31
610.519	558.31
610.611	598.31
610.702	591.31
610.794	614.31
610.886	653.31
610.978	604.31
611.069	993.31
611.161	542.31
611.253	615.31
611.344	559.31
611.436	420.31
611.528	560.31
611.62	487.31
611.711	501.31
611.803	468.31
611.894	469.31
611.986	472.31
612.078	447.31
612.169	505.31
612.261	492.31
612.352	409.31
612.444	425.31
612.536	594.31
612.627	478.31
612.719	367.31
612.81	424.31
612.902	314.31
612.993	405.31
613.085	382.31
613.176	311.31
613.268	342.31
613.359	341.31
613.451	412.31
613.542	400.31
613.634	367.31
613.725	471.31
613.816	428.31
613.908	313.31
613.999	385.31
614.091	258.31
614.182	264.31
614.273	376.31
614.365	285.31
614.456	202.31
614.547	265.31
614.639	271.31
614.73	288.31
614.821	308.31
614.913	263.31
615.004	172.31
615.095	206.31
615.187	235.31
