Data from 7g_HRC06701__15__137.txt Node

Date: Thu Apr 18 01:50:04 CDT 2024
User: Estudiantes 2
Spectrometer: HR+C0670
Trigger mode: 4
Integration Time (sec): 1.000000E0
Scans to average: 1
Electric dark correction enabled: true
Nonlinearity correction enabled: false
Boxcar width: 0
XAxis mode: Wavelengths
Number of Pixels in Spectrum: 2048
>>>>>Begin Spectral Data<<<<<
407.81	-131.69
407.921	-131.69
408.032	-131.69
408.143	-104.69
408.254	-110.69
408.365	12.31
408.476	227.31
408.587	31.31
408.699	-31.69
408.81	-57.69
408.921	-5.69
409.032	-49.69
409.143	54.31
409.254	54.31
409.365	69.31
409.476	-20.69
409.587	-14.69
409.698	78.31
409.809	63.31
409.92	-28.69
410.031	40.31
410.142	51.31
410.253	-7.69
410.364	93.31
410.475	391.31
410.585	2198.31
410.696	2318.31
410.807	2317.31
410.918	2302.31
411.029	2411.31
411.14	2362.31
411.251	2277.31
411.362	2362.31
411.472	2411.31
411.583	2341.31
411.694	2398.31
411.805	2368.31
411.916	2363.31
412.026	2473.31
412.137	2413.31
412.248	2403.31
412.359	2365.31
412.47	2324.31
412.58	2300.31
412.691	2374.31
412.802	2336.31
412.912	2389.31
413.023	2391.31
413.134	2318.31
413.245	2457.31
413.355	2305.31
413.466	2327.31
413.577	2337.31
413.687	2387.31
413.798	2198.31
413.909	2399.31
414.019	2414.31
414.13	2408.31
414.24	2249.31
414.351	2435.31
414.462	2521.31
414.572	2351.31
414.683	2426.31
414.793	2353.31
414.904	2664.31
415.014	2392.31
415.125	2282.31
415.235	2358.31
415.346	2490.31
415.456	2481.31
415.567	2352.31
415.677	2301.31
415.788	2429.31
415.898	2303.31
416.009	2281.31
416.119	2390.31
416.23	2343.31
416.34	2244.31
416.45	2404.31
416.561	3011.31
416.671	2460.31
416.782	2355.31
416.892	2368.31
417.002	2373.31
417.113	2419.31
417.223	2390.31
417.333	2350.31
417.444	2376.31
417.554	2520.31
417.664	2442.31
417.775	2393.31
417.885	2556.31
417.995	2438.31
418.106	2690.31
418.216	2475.31
418.326	2611.31
418.436	2542.31
418.547	2585.31
418.657	2671.31
418.767	2668.31
418.877	2652.31
418.987	2693.31
419.098	2647.31
419.208	2690.31
419.318	2744.31
419.428	2716.31
419.538	2656.31
419.648	2755.31
419.759	2828.31
419.869	2668.31
419.979	2612.31
420.089	2699.31
420.199	2683.31
420.309	2696.31
420.419	2737.31
420.529	2680.31
420.639	2971.31
420.749	2837.31
420.859	2815.31
420.969	2748.31
421.079	2958.31
421.189	2825.31
421.299	2759.31
421.409	2667.31
421.519	2839.31
421.629	2872.31
421.739	2868.31
421.849	2803.31
421.959	2786.31
422.069	2916.31
422.179	2934.31
422.289	2802.31
422.399	2980.31
422.509	3091.31
422.619	5941.31
422.729	3225.31
422.838	2939.31
422.948	3169.31
423.058	3074.31
423.168	3042.31
423.278	3145.31
423.388	3156.31
423.498	3259.31
423.607	3181.31
423.717	3400.31
423.827	3405.31
423.937	3264.31
424.046	3321.31
424.156	3315.31
424.266	3347.31
424.376	3590.31
424.485	3493.31
424.595	3349.31
424.705	3455.31
424.815	3440.31
424.924	3799.31
425.034	3496.31
425.144	3407.31
425.253	3466.31
425.363	3504.31
425.473	3538.31
425.582	3382.31
425.692	3545.31
425.801	3591.31
425.911	3735.31
426.021	3594.31
426.13	3807.31
426.24	3776.31
426.349	3743.31
426.459	3692.31
426.568	3661.31
426.678	3775.31
426.787	3776.31
426.897	3565.31
427.006	3765.31
427.116	3827.31
427.225	3866.31
427.335	3941.31
427.444	3745.31
427.554	3876.31
427.663	3873.31
427.773	3849.31
427.882	3974.31
427.992	3913.31
428.101	3927.31
428.21	3972.31
428.32	4044.31
428.429	3969.31
428.539	4315.31
428.648	4078.31
428.757	4091.31
428.867	4124.31
428.976	4366.31
429.085	4219.31
429.195	4187.31
429.304	4213.31
429.413	4224.31
429.523	4270.31
429.632	4229.31
429.741	4197.31
429.85	4116.31
429.96	4352.31
430.069	4279.31
430.178	4227.31
430.287	4644.31
430.397	4371.31
430.506	4295.31
430.615	4359.31
430.724	4444.31
430.833	4378.31
430.943	4349.31
431.052	4569.31
431.161	4462.31
431.27	4597.31
431.379	4608.31
431.488	4778.31
431.597	4681.31
431.706	4690.31
431.816	4695.31
431.925	4584.31
432.034	4692.31
432.143	4734.31
432.252	4612.31
432.361	4748.31
432.47	4722.31
432.579	4627.31
432.688	4663.31
432.797	4707.31
432.906	4547.31
433.015	4716.31
433.124	4990.31
433.233	4845.31
433.342	4702.31
433.451	4754.31
433.56	4722.31
433.669	4740.31
433.778	4772.31
433.886	4955.31
433.995	4688.31
434.104	4976.31
434.213	4983.31
434.322	4924.31
434.431	5144.31
434.54	5196.31
434.649	5382.31
434.757	5185.31
434.866	5031.31
434.975	5275.31
435.084	5047.31
435.193	4990.31
435.301	5184.31
435.41	5146.31
435.519	5211.31
435.628	4671.31
435.737	4617.31
435.845	4592.31
435.954	4538.31
436.063	4453.31
436.171	4574.31
436.28	4510.31
436.389	4651.31
436.498	4486.31
436.606	4450.31
436.715	4594.31
436.823	4388.31
436.932	4359.31
437.041	4345.31
437.149	4316.31
437.258	4190.31
437.367	4143.31
437.475	4188.31
437.584	4472.31
437.692	4164.31
437.801	5654.31
437.91	4302.31
438.018	4121.31
438.127	4136.31
438.235	4214.31
438.344	4125.31
438.452	4136.31
438.561	3941.31
438.669	4023.31
438.778	4002.31
438.886	4148.31
438.995	4011.31
439.103	4063.31
439.212	4088.31
439.32	4101.31
439.428	4006.31
439.537	4136.31
439.645	4188.31
439.754	4137.31
439.862	4031.31
439.97	4163.31
440.079	4145.31
440.187	3993.31
440.295	4228.31
440.404	4123.31
440.512	4261.31
440.62	4270.31
440.729	4356.31
440.837	4332.31
440.945	4940.31
441.054	4331.31
441.162	4377.31
441.27	4665.31
441.378	4475.31
441.487	4494.31
441.595	4897.31
441.703	4674.31
441.811	4534.31
441.92	4396.31
442.028	4452.31
442.136	4409.31
442.244	4389.31
442.352	4470.31
442.461	4268.31
442.569	4206.31
442.677	4396.31
442.785	4396.31
442.893	4283.31
443.001	4355.31
443.109	4220.31
443.217	4220.31
443.325	4348.31
443.434	4962.31
443.542	4616.31
443.65	4415.31
443.758	4701.31
443.866	4509.31
443.974	4848.31
444.082	4728.31
444.19	4702.31
444.298	4862.31
444.406	5024.31
444.514	4982.31
444.622	5166.31
444.73	5168.31
444.838	5038.31
444.946	5017.31
445.054	4757.31
445.161	4773.31
445.269	4587.31
445.377	4630.31
445.485	4627.31
445.593	4462.31
445.701	4726.31
445.809	4562.31
445.917	4490.31
446.025	4452.31
446.132	4575.31
446.24	4528.31
446.348	4529.31
446.456	4376.31
446.564	4436.31
446.671	4439.31
446.779	4368.31
446.887	4394.31
446.995	4416.31
447.102	4461.31
447.21	4413.31
447.318	4410.31
447.426	4408.31
447.533	4588.31
447.641	5517.31
447.749	4430.31
447.856	4328.31
447.964	4432.31
448.072	4564.31
448.179	4357.31
448.287	4383.31
448.395	4474.31
448.502	4357.31
448.61	4476.31
448.718	4404.31
448.825	4515.31
448.933	4406.31
449.04	4430.31
449.148	4526.31
449.256	4514.31
449.363	4523.31
449.471	4597.31
449.578	4726.31
449.686	4572.31
449.793	4727.31
449.901	4655.31
450.008	4730.31
450.116	4740.31
450.223	4810.31
450.331	4940.31
450.438	4871.31
450.546	4925.31
450.653	4992.31
450.76	4994.31
450.868	4979.31
450.975	5247.31
451.083	5103.31
451.19	5136.31
451.297	5000.31
451.405	5152.31
451.512	5192.31
451.619	5248.31
451.727	5284.31
451.834	5163.31
451.941	5215.31
452.049	5356.31
452.156	5255.31
452.263	5292.31
452.371	5283.31
452.478	5343.31
452.585	5461.31
452.692	5290.31
452.8	5463.31
452.907	5667.31
453.014	5391.31
453.121	5434.31
453.229	5516.31
453.336	5472.31
453.443	5560.31
453.55	5587.31
453.657	5476.31
453.765	5668.31
453.872	5573.31
453.979	5775.31
454.086	5651.31
454.193	5819.31
454.3	5742.31
454.407	5798.31
454.514	5859.31
454.621	5675.31
454.729	5718.31
454.836	5815.31
454.943	5817.31
455.05	5847.31
455.157	5972.31
455.264	5881.31
455.371	5788.31
455.478	5895.31
455.585	7296.31
455.692	6030.31
455.799	6167.31
455.906	6016.31
456.013	5979.31
456.12	5940.31
456.227	6074.31
456.334	6100.31
456.44	6243.31
456.547	6196.31
456.654	6151.31
456.761	6252.31
456.868	6284.31
456.975	6503.31
457.082	6255.31
457.189	6175.31
457.296	6351.31
457.402	6351.31
457.509	6328.31
457.616	6548.31
457.723	6632.31
457.83	6586.31
457.936	6635.31
458.043	6991.31
458.15	6589.31
458.257	6772.31
458.363	7036.31
458.47	6970.31
458.577	7060.31
458.684	7069.31
458.79	7347.31
458.897	7398.31
459.004	7466.31
459.11	7512.31
459.217	7565.31
459.324	7544.31
459.43	7833.31
459.537	8014.31
459.644	7915.31
459.75	7878.31
459.857	8276.31
459.964	8262.31
460.07	8149.31
460.177	8366.31
460.283	8451.31
460.39	8473.31
460.496	8376.31
460.603	8368.31
460.71	8347.31
460.816	8384.31
460.923	8211.31
461.029	8214.31
461.136	8370.31
461.242	8292.31
461.349	8430.31
461.455	8492.31
461.562	8668.31
461.668	8587.31
461.774	8455.31
461.881	8514.31
461.987	8612.31
462.094	8802.31
462.2	8996.31
462.307	8859.31
462.413	8879.31
462.519	9186.31
462.626	9605.31
462.732	9551.31
462.838	10006.31
462.945	10020.31
463.051	10272.31
463.157	10081.31
463.264	9961.31
463.37	9622.31
463.476	9383.31
463.583	9327.31
463.689	9072.31
463.795	9176.31
463.901	9302.31
464.008	9372.31
464.114	9273.31
464.22	9354.31
464.326	9102.31
464.433	8991.31
464.539	8843.31
464.645	8647.31
464.751	8759.31
464.857	8471.31
464.963	8142.31
465.07	7900.31
465.176	7653.31
465.282	7582.31
465.388	7392.31
465.494	7143.31
465.6	7074.31
465.706	6920.31
465.812	6791.31
465.918	6947.31
466.024	6743.31
466.131	6755.31
466.237	6466.31
466.343	6381.31
466.449	6315.31
466.555	6281.31
466.661	6306.31
466.767	6205.31
466.873	6088.31
466.979	6238.31
467.085	6008.31
467.191	6130.31
467.296	6016.31
467.402	5904.31
467.508	5977.31
467.614	6151.31
467.72	5805.31
467.826	5746.31
467.932	5752.31
468.038	5576.31
468.144	5629.31
468.25	5598.31
468.355	5573.31
468.461	5530.31
468.567	5477.31
468.673	5533.31
468.779	5430.31
468.885	5533.31
468.99	5452.31
469.096	5517.31
469.202	5570.31
469.308	5438.31
469.413	5654.31
469.519	5630.31
469.625	5475.31
469.731	5724.31
469.836	5576.31
469.942	5917.31
470.048	5722.31
470.153	5744.31
470.259	5601.31
470.365	5794.31
470.47	5695.31
470.576	5613.31
470.682	5607.31
470.787	5654.31
470.893	5499.31
470.999	5509.31
471.104	5431.31
471.21	5221.31
471.315	5175.31
471.421	5120.31
471.527	5307.31
471.632	5229.31
471.738	5003.31
471.843	4989.31
471.949	4984.31
472.054	4973.31
472.16	4979.31
472.265	4897.31
472.371	4862.31
472.476	4861.31
472.582	4854.31
472.687	4785.31
472.793	4810.31
472.898	4748.31
473.003	4678.31
473.109	4680.31
473.214	4683.31
473.32	4677.31
473.425	4744.31
473.53	4747.31
473.636	4610.31
473.741	4767.31
473.847	4727.31
473.952	4664.31
474.057	4785.31
474.163	4772.31
474.268	4633.31
474.373	4784.31
474.478	4643.31
474.584	4576.31
474.689	4601.31
474.794	4686.31
474.9	5000.31
475.005	4601.31
475.11	4774.31
475.215	4624.31
475.321	4717.31
475.426	4902.31
475.531	4797.31
475.636	4768.31
475.741	4604.31
475.846	4921.31
475.952	4954.31
476.057	4802.31
476.162	4895.31
476.267	4959.31
476.372	5112.31
476.477	4879.31
476.582	4963.31
476.687	4890.31
476.793	4958.31
476.898	5050.31
477.003	4939.31
477.108	4987.31
477.213	4987.31
477.318	5029.31
477.423	5152.31
477.528	5229.31
477.633	5243.31
477.738	5261.31
477.843	5273.31
477.948	5298.31
478.053	5316.31
478.158	5470.31
478.263	5453.31
478.368	5356.31
478.473	5699.31
478.578	5715.31
478.682	5564.31
478.787	5639.31
478.892	5698.31
478.997	5747.31
479.102	5671.31
479.207	5640.31
479.312	5873.31
479.417	5724.31
479.521	5782.31
479.626	5804.31
479.731	5804.31
479.836	5820.31
479.941	6146.31
480.045	6084.31
480.15	6165.31
480.255	6248.31
480.36	6220.31
480.465	6208.31
480.569	6331.31
480.674	6128.31
480.779	5996.31
480.883	5997.31
480.988	6197.31
481.093	5983.31
481.197	5958.31
481.302	6048.31
481.407	6018.31
481.511	7151.31
481.616	5944.31
481.721	5979.31
481.825	6202.31
481.93	5864.31
482.035	5998.31
482.139	6080.31
482.244	5977.31
482.348	6131.31
482.453	6065.31
482.557	6170.31
482.662	6179.31
482.767	6085.31
482.871	6184.31
482.976	6280.31
483.08	6329.31
483.185	6419.31
483.289	6348.31
483.394	6374.31
483.498	6507.31
483.603	6447.31
483.707	6591.31
483.811	6526.31
483.916	6643.31
484.02	6624.31
484.125	6787.31
484.229	6722.31
484.333	6981.31
484.438	6879.31
484.542	6861.31
484.647	6905.31
484.751	7069.31
484.855	7024.31
484.96	7179.31
485.064	7284.31
485.168	7311.31
485.273	7169.31
485.377	7317.31
485.481	7439.31
485.585	7544.31
485.69	7546.31
485.794	7450.31
485.898	7492.31
486.002	7615.31
486.107	7539.31
486.211	7487.31
486.315	7525.31
486.419	7667.31
486.524	7606.31
486.628	7538.31
486.732	7565.31
486.836	7654.31
486.94	7702.31
487.044	7703.31
487.148	7520.31
487.253	7529.31
487.357	7736.31
487.461	7850.31
487.565	7736.31
487.669	7647.31
487.773	7649.31
487.877	7671.31
487.981	7725.31
488.085	7744.31
488.189	7664.31
488.293	7769.31
488.397	8043.31
488.501	7669.31
488.605	7638.31
488.709	7546.31
488.813	7593.31
488.917	7499.31
489.021	7667.31
489.125	7901.31
489.229	7555.31
489.333	7862.31
489.437	7823.31
489.541	7653.31
489.645	7633.31
489.749	7751.31
489.853	7819.31
489.956	7645.31
490.06	7718.31
490.164	7667.31
490.268	7606.31
490.372	7871.31
490.476	7711.31
490.579	7651.31
490.683	8412.31
490.787	7769.31
490.891	7690.31
490.995	7654.31
491.098	7738.31
491.202	7696.31
491.306	7720.31
491.41	7691.31
491.513	7639.31
491.617	7706.31
491.721	7934.31
491.824	7804.31
491.928	7624.31
492.032	7849.31
492.136	7801.31
492.239	7667.31
492.343	7748.31
492.446	8159.31
492.55	7765.31
492.654	7608.31
492.757	7754.31
492.861	7767.31
492.965	7523.31
493.068	7818.31
493.172	7812.31
493.275	7716.31
493.379	7705.31
493.482	7843.31
493.586	7815.31
493.689	7941.31
493.793	7780.31
493.896	7843.31
494	7764.31
494.103	7860.31
494.207	8035.31
494.31	8133.31
494.414	7989.31
494.517	7817.31
494.621	7639.31
494.724	7655.31
494.828	7641.31
494.931	7607.31
495.034	7629.31
495.138	7865.31
495.241	7551.31
495.345	8348.31
495.448	7861.31
495.551	7644.31
495.655	7494.31
495.758	7594.31
495.861	7653.31
495.965	7535.31
496.068	7648.31
496.171	7706.31
496.274	7464.31
496.378	7672.31
496.481	7729.31
496.584	7566.31
496.687	7740.31
496.791	7760.31
496.894	7807.31
496.997	7791.31
497.1	7797.31
497.204	7767.31
497.307	7784.31
497.41	8085.31
497.513	8336.31
497.616	8096.31
497.719	8161.31
497.823	8340.31
497.926	8275.31
498.029	8511.31
498.132	8525.31
498.235	8535.31
498.338	8906.31
498.441	9091.31
498.544	9268.31
498.647	9579.31
498.75	9836.31
498.853	10181.31
498.956	10258.31
499.059	10808.31
499.163	10755.31
499.266	11152.31
499.369	11516.31
499.471	11847.31
499.574	12403.31
499.677	12706.31
499.78	13365.31
499.883	13912.31
499.986	14499.31
500.089	14545.31
500.192	14545.31
500.295	14545.31
500.398	14545.31
500.501	14545.31
500.604	14545.31
500.707	14352.31
500.809	13781.31
500.912	13227.31
501.015	12932.31
501.118	12185.31
501.221	11652.31
501.324	10996.31
501.426	10725.31
501.529	10290.31
501.632	9994.31
501.735	9662.31
501.837	9402.31
501.94	9118.31
502.043	8997.31
502.146	8721.31
502.248	8513.31
502.351	8426.31
502.454	8302.31
502.557	7995.31
502.659	7977.31
502.762	7713.31
502.865	7733.31
502.967	7453.31
503.07	7200.31
503.173	7229.31
503.275	7090.31
503.378	7180.31
503.48	6977.31
503.583	6991.31
503.686	6879.31
503.788	7138.31
503.891	6921.31
503.993	7132.31
504.096	6875.31
504.198	7028.31
504.301	6960.31
504.403	6953.31
504.506	6858.31
504.608	6741.31
504.711	6552.31
504.813	6640.31
504.916	6378.31
505.018	6274.31
505.121	6276.31
505.223	6144.31
505.326	5947.31
505.428	6024.31
505.531	5837.31
505.633	5756.31
505.735	5742.31
505.838	5673.31
505.94	5696.31
506.042	5546.31
506.145	5537.31
506.247	5594.31
506.35	5382.31
506.452	5598.31
506.554	5473.31
506.656	5371.31
506.759	5344.31
506.861	5391.31
506.963	5273.31
507.066	5343.31
507.168	5446.31
507.27	5174.31
507.372	5193.31
507.475	5390.31
507.577	5251.31
507.679	5226.31
507.781	5094.31
507.883	5194.31
507.986	5094.31
508.088	5133.31
508.19	5150.31
508.292	5068.31
508.394	5018.31
508.496	5014.31
508.598	5077.31
508.701	5088.31
508.803	5076.31
508.905	4960.31
509.007	5005.31
509.109	5028.31
509.211	5005.31
509.313	4989.31
509.415	4896.31
509.517	4920.31
509.619	4911.31
509.721	5031.31
509.823	4980.31
509.925	4989.31
510.027	4871.31
510.129	4926.31
510.231	4964.31
510.333	4867.31
510.435	4911.31
510.537	4933.31
510.639	4956.31
510.741	4868.31
510.843	4870.31
510.945	4853.31
511.047	4923.31
511.148	5002.31
511.25	4924.31
511.352	4894.31
511.454	4842.31
511.556	4965.31
511.658	4819.31
511.76	4975.31
511.861	5058.31
511.963	4866.31
512.065	4877.31
512.167	4842.31
512.268	5118.31
512.37	4963.31
512.472	4922.31
512.574	4981.31
512.676	5032.31
512.777	4939.31
512.879	4887.31
512.981	4868.31
513.082	4948.31
513.184	4900.31
513.286	5429.31
513.387	5061.31
513.489	5134.31
513.591	5043.31
513.692	5055.31
513.794	5145.31
513.896	4909.31
513.997	4950.31
514.099	4990.31
514.2	5162.31
514.302	5148.31
514.404	5235.31
514.505	5106.31
514.607	5196.31
514.708	5187.31
514.81	5350.31
514.911	5256.31
515.013	5429.31
515.114	5419.31
515.216	5181.31
515.317	5365.31
515.419	5388.31
515.52	5497.31
515.622	5420.31
515.723	5551.31
515.825	5770.31
515.926	5604.31
516.027	5605.31
516.129	5707.31
516.23	5804.31
516.332	5913.31
516.433	6050.31
516.534	6120.31
516.636	6064.31
516.737	6254.31
516.838	7273.31
516.94	6618.31
517.041	6544.31
517.142	6901.31
517.244	6732.31
517.345	6918.31
517.446	6968.31
517.547	7141.31
517.649	7083.31
517.75	7135.31
517.851	6980.31
517.952	7300.31
518.054	7056.31
518.155	6975.31
518.256	6612.31
518.357	6819.31
518.458	6569.31
518.56	6552.31
518.661	6450.31
518.762	6357.31
518.863	6412.31
518.964	6422.31
519.065	6204.31
519.166	6163.31
519.268	5998.31
519.369	6339.31
519.47	6001.31
519.571	5980.31
519.672	6047.31
519.773	5865.31
519.874	5871.31
519.975	5964.31
520.076	5845.31
520.177	5916.31
520.278	5898.31
520.379	5864.31
520.48	5693.31
520.581	5768.31
520.682	5837.31
520.783	5797.31
520.884	5865.31
520.985	5822.31
521.086	5657.31
521.187	5760.31
521.288	5801.31
521.389	5661.31
521.489	5627.31
521.59	5764.31
521.691	5711.31
521.792	5664.31
521.893	5866.31
521.994	5737.31
522.095	5732.31
522.195	5691.31
522.296	5849.31
522.397	5812.31
522.498	5783.31
522.599	5699.31
522.699	5623.31
522.8	5654.31
522.901	5799.31
523.002	5722.31
523.102	5973.31
523.203	5743.31
523.304	5872.31
523.405	5686.31
523.505	5755.31
523.606	5789.31
523.707	5618.31
523.807	5648.31
523.908	5813.31
524.009	5876.31
524.109	5743.31
524.21	5817.31
524.31	5701.31
524.411	5931.31
524.512	6020.31
524.612	5858.31
524.713	5924.31
524.813	5846.31
524.914	6074.31
525.014	10289.31
525.115	6152.31
525.216	5893.31
525.316	5696.31
525.417	5759.31
525.517	5836.31
525.618	5815.31
525.718	5732.31
525.819	5727.31
525.919	5884.31
526.019	5682.31
526.12	5767.31
526.22	5769.31
526.321	5696.31
526.421	5695.31
526.522	5728.31
526.622	5719.31
526.722	5757.31
526.823	5858.31
526.923	5711.31
527.023	5817.31
527.124	5692.31
527.224	5774.31
527.324	5736.31
527.425	5779.31
527.525	5773.31
527.625	5585.31
527.726	5705.31
527.826	5898.31
527.926	5637.31
528.026	5759.31
528.127	5757.31
528.227	5774.31
528.327	5817.31
528.427	5828.31
528.528	5802.31
528.628	5861.31
528.728	5772.31
528.828	5910.31
528.928	5798.31
529.029	5749.31
529.129	5772.31
529.229	5796.31
529.329	5793.31
529.429	5878.31
529.529	5700.31
529.629	5735.31
529.729	5804.31
529.829	5792.31
529.93	5681.31
530.03	5755.31
530.13	5625.31
530.23	5604.31
530.33	5671.31
530.43	5696.31
530.53	5678.31
530.63	5605.31
530.73	5570.31
530.83	5474.31
530.93	5541.31
531.03	5525.31
531.13	5545.31
531.23	5523.31
531.33	5525.31
531.429	5637.31
531.529	5619.31
531.629	5481.31
531.729	5520.31
531.829	5452.31
531.929	5355.31
532.029	5534.31
532.129	5312.31
532.229	5462.31
532.328	5479.31
532.428	5443.31
532.528	5286.31
532.628	5301.31
532.728	5467.31
532.827	5318.31
532.927	5440.31
533.027	5356.31
533.127	5376.31
533.227	5453.31
533.326	5392.31
533.426	5276.31
533.526	5381.31
533.625	5461.31
533.725	5662.31
533.825	5304.31
533.924	5214.31
534.024	5043.31
534.124	5067.31
534.223	5143.31
534.323	5587.31
534.423	5157.31
534.522	5161.31
534.622	5058.31
534.722	5062.31
534.821	5150.31
534.921	5014.31
535.02	4884.31
535.12	5092.31
535.219	5097.31
535.319	5120.31
535.419	5040.31
535.518	4952.31
535.618	4906.31
535.717	4900.31
535.817	4864.31
535.916	4782.31
536.016	4762.31
536.115	4811.31
536.215	4874.31
536.314	4671.31
536.413	4531.31
536.513	4693.31
536.612	4700.31
536.712	4556.31
536.811	4625.31
536.91	4579.31
537.01	4551.31
537.109	4642.31
537.209	4584.31
537.308	4507.31
537.407	4607.31
537.507	4576.31
537.606	4579.31
537.705	4548.31
537.805	4468.31
537.904	4383.31
538.003	4452.31
538.102	4468.31
538.202	4478.31
538.301	4502.31
538.4	4426.31
538.499	4512.31
538.599	4430.31
538.698	4667.31
538.797	4516.31
538.896	4456.31
538.995	4418.31
539.095	4343.31
539.194	4618.31
539.293	4424.31
539.392	4309.31
539.491	4392.31
539.59	4322.31
539.689	4453.31
539.789	4361.31
539.888	4183.31
539.987	4179.31
540.086	4303.31
540.185	4220.31
540.284	4260.31
540.383	4291.31
540.482	4248.31
540.581	4232.31
540.68	4228.31
540.779	4342.31
540.878	4253.31
540.977	4281.31
541.076	4223.31
541.175	4137.31
541.274	4408.31
541.373	4355.31
541.472	4249.31
541.571	4183.31
541.67	5477.31
541.769	4367.31
541.868	4165.31
541.966	4309.31
542.065	4189.31
542.164	4183.31
542.263	4064.31
542.362	4155.31
542.461	4175.31
542.56	4142.31
542.658	4261.31
542.757	3967.31
542.856	3969.31
542.955	4035.31
543.054	4075.31
543.152	4120.31
543.251	4004.31
543.35	4196.31
543.449	4079.31
543.547	3992.31
543.646	4073.31
543.745	4083.31
543.843	4120.31
543.942	4180.31
544.041	4057.31
544.14	4102.31
544.238	4124.31
544.337	4268.31
544.436	4123.31
544.534	4235.31
544.633	4210.31
544.731	4071.31
544.83	4119.31
544.929	4170.31
545.027	4169.31
545.126	4089.31
545.224	4319.31
545.323	4021.31
545.421	4072.31
545.52	4146.31
545.619	4176.31
545.717	4147.31
545.816	4231.31
545.914	4151.31
546.013	4402.31
546.111	4235.31
546.209	4087.31
546.308	4100.31
546.406	4089.31
546.505	4306.31
546.603	4132.31
546.702	4041.31
546.8	4064.31
546.899	4037.31
546.997	4049.31
547.095	4169.31
547.194	4099.31
547.292	4127.31
547.39	4200.31
547.489	4092.31
547.587	4390.31
547.685	4032.31
547.784	4391.31
547.882	4181.31
547.98	4084.31
548.079	4157.31
548.177	4076.31
548.275	4025.31
548.373	4284.31
548.472	4076.31
548.57	4140.31
548.668	4279.31
548.766	4090.31
548.864	4169.31
548.963	4062.31
549.061	4273.31
549.159	4074.31
549.257	4174.31
549.355	4202.31
549.454	4232.31
549.552	4223.31
549.65	4303.31
549.748	4103.31
549.846	4093.31
549.944	4207.31
550.042	4130.31
550.14	4012.31
550.238	4113.31
550.336	4090.31
550.434	3977.31
550.532	3952.31
550.631	4125.31
550.729	4038.31
550.827	4029.31
550.925	4077.31
551.023	3986.31
551.121	3976.31
551.218	4004.31
551.316	3983.31
551.414	3951.31
551.512	3947.31
551.61	4064.31
551.708	4126.31
551.806	4076.31
551.904	4130.31
552.002	3940.31
552.1	4094.31
552.198	4146.31
552.296	4366.31
552.393	4375.31
552.491	4422.31
552.589	4423.31
552.687	4421.31
552.785	4483.31
552.882	4664.31
552.98	4617.31
553.078	4636.31
553.176	4604.31
553.274	4410.31
553.371	4410.31
553.469	4553.31
553.567	4417.31
553.665	4419.31
553.762	4832.31
553.86	4410.31
553.958	4298.31
554.055	4276.31
554.153	4329.31
554.251	4165.31
554.348	4224.31
554.446	4078.31
554.544	4150.31
554.641	4464.31
554.739	4108.31
554.837	4082.31
554.934	4077.31
555.032	4060.31
555.129	4006.31
555.227	4328.31
555.324	8204.31
555.422	4360.31
555.519	3975.31
555.617	3880.31
555.715	3867.31
555.812	5564.31
555.91	3924.31
556.007	3942.31
556.105	3856.31
556.202	3862.31
556.299	3784.31
556.397	3855.31
556.494	3797.31
556.592	3848.31
556.689	3932.31
556.787	3814.31
556.884	3694.31
556.981	3827.31
557.079	3793.31
557.176	3852.31
557.273	3876.31
557.371	3733.31
557.468	3779.31
557.566	3867.31
557.663	3843.31
557.76	3767.31
557.857	3714.31
557.955	3956.31
558.052	3838.31
558.149	3894.31
558.247	3978.31
558.344	3739.31
558.441	3694.31
558.538	3791.31
558.636	3763.31
558.733	3862.31
558.83	3839.31
558.927	3824.31
559.024	3741.31
559.122	3687.31
559.219	3837.31
559.316	3770.31
559.413	3917.31
559.51	3814.31
559.607	3832.31
559.704	3826.31
559.801	3887.31
559.899	3712.31
559.996	4042.31
560.093	3856.31
560.19	3756.31
560.287	3857.31
560.384	4019.31
560.481	3803.31
560.578	3865.31
560.675	3805.31
560.772	3937.31
560.869	3868.31
560.966	3934.31
561.063	3848.31
561.16	4000.31
561.257	3842.31
561.354	3992.31
561.451	3893.31
561.548	3935.31
561.645	4070.31
561.742	3836.31
561.838	3901.31
561.935	3874.31
562.032	3927.31
562.129	3873.31
562.226	3851.31
562.323	3975.31
562.42	3851.31
562.516	3894.31
562.613	3926.31
562.71	3960.31
562.807	4678.31
562.904	3980.31
563	3980.31
563.097	3914.31
563.194	3919.31
563.291	3982.31
563.387	4025.31
563.484	4009.31
563.581	4079.31
563.678	4039.31
563.774	4404.31
563.871	4192.31
563.968	4159.31
564.064	4137.31
564.161	4202.31
564.258	4182.31
564.354	4211.31
564.451	4206.31
564.548	4389.31
564.644	4295.31
564.741	4358.31
564.837	4356.31
564.934	4327.31
565.031	4379.31
565.127	4540.31
565.224	4632.31
565.32	4809.31
565.417	4695.31
565.513	4778.31
565.61	4775.31
565.706	5092.31
565.803	5067.31
565.899	5093.31
565.996	5195.31
566.092	5297.31
566.189	5483.31
566.285	5573.31
566.382	5732.31
566.478	6037.31
566.574	6140.31
566.671	6173.31
566.767	6142.31
566.864	6164.31
566.96	6187.31
567.056	6232.31
567.153	6614.31
567.249	6565.31
567.345	6787.31
567.442	6792.31
567.538	6937.31
567.634	7063.31
567.731	7077.31
567.827	7078.31
567.923	6995.31
568.019	6692.31
568.116	6378.31
568.212	6109.31
568.308	6054.31
568.404	5870.31
568.501	5647.31
568.597	5573.31
568.693	5317.31
568.789	5849.31
568.885	5067.31
568.982	4850.31
569.078	4813.31
569.174	4782.31
569.27	4608.31
569.366	4564.31
569.462	4478.31
569.558	4327.31
569.655	4362.31
569.751	4311.31
569.847	4254.31
569.943	4244.31
570.039	4203.31
570.135	4692.31
570.231	4171.31
570.327	4348.31
570.423	4200.31
570.519	4208.31
570.615	4138.31
570.711	4303.31
570.807	4269.31
570.903	4119.31
570.999	4197.31
571.095	4179.31
571.191	3974.31
571.287	4032.31
571.383	4092.31
571.479	3955.31
571.574	3915.31
571.67	3846.31
571.766	3927.31
571.862	3692.31
571.958	3696.31
572.054	3716.31
572.15	3602.31
572.246	3512.31
572.341	3700.31
572.437	3507.31
572.533	3616.31
572.629	3592.31
572.725	3478.31
572.82	3403.31
572.916	3615.31
573.012	3506.31
573.108	3535.31
573.203	3385.31
573.299	3344.31
573.395	3277.31
573.49	3291.31
573.586	3356.31
573.682	3279.31
573.778	3486.31
573.873	3342.31
573.969	3300.31
574.065	3277.31
574.16	3352.31
574.256	3333.31
574.351	3359.31
574.447	3241.31
574.543	3277.31
574.638	3324.31
574.734	3235.31
574.829	3456.31
574.925	3231.31
575.02	3173.31
575.116	3162.31
575.212	3152.31
575.307	3266.31
575.403	3183.31
575.498	3143.31
575.594	3090.31
575.689	3161.31
575.784	3160.31
575.88	3113.31
575.975	3127.31
576.071	3063.31
576.166	2959.31
576.262	3084.31
576.357	3055.31
576.452	3209.31
576.548	2957.31
576.643	3023.31
576.739	3013.31
576.834	3017.31
576.929	3022.31
577.025	3625.31
577.12	2903.31
577.215	2908.31
577.311	2934.31
577.406	2906.31
577.501	3079.31
577.597	2819.31
577.692	2954.31
577.787	2883.31
577.882	2860.31
577.978	2819.31
578.073	2728.31
578.168	2756.31
578.263	2679.31
578.358	2757.31
578.454	2685.31
578.549	2769.31
578.644	2682.31
578.739	2716.31
578.834	2660.31
578.929	2557.31
579.025	2647.31
579.12	2728.31
579.215	2862.31
579.31	2790.31
579.405	2611.31
579.5	2661.31
579.595	2619.31
579.69	2509.31
579.785	2568.31
579.88	2506.31
579.975	2475.31
580.07	2576.31
580.165	2555.31
580.26	2639.31
580.355	2569.31
580.45	2474.31
580.545	2486.31
580.64	2559.31
580.735	2599.31
580.83	2500.31
580.925	2439.31
581.02	2375.31
581.115	2408.31
581.21	2352.31
581.305	2442.31
581.4	2398.31
581.495	2392.31
581.589	2500.31
581.684	2323.31
581.779	2395.31
581.874	2389.31
581.969	2417.31
582.064	2284.31
582.158	2375.31
582.253	2339.31
582.348	2273.31
582.443	2355.31
582.537	2334.31
582.632	2493.31
582.727	2305.31
582.822	2299.31
582.916	2211.31
583.011	2275.31
583.106	2348.31
583.201	2267.31
583.295	2240.31
583.39	2246.31
583.485	2174.31
583.579	4333.31
583.674	2387.31
583.769	2471.31
583.863	2245.31
583.958	2214.31
584.052	2182.31
584.147	2173.31
584.242	2133.31
584.336	2263.31
584.431	2388.31
584.525	2170.31
584.62	2365.31
584.714	2214.31
584.809	2162.31
584.903	2184.31
584.998	2269.31
585.092	2060.31
585.187	2171.31
585.281	2093.31
585.376	2092.31
585.47	2107.31
585.565	2140.31
585.659	1984.31
585.754	2129.31
585.848	2143.31
585.942	2026.31
586.037	2027.31
586.131	4211.31
586.226	2225.31
586.32	2070.31
586.414	1939.31
586.509	2162.31
586.603	2112.31
586.697	2019.31
586.792	2030.31
586.886	1977.31
586.98	2094.31
587.075	2010.31
587.169	1985.31
587.263	2132.31
587.357	2012.31
587.452	1904.31
587.546	2005.31
587.64	1960.31
587.734	2093.31
587.829	2020.31
587.923	1948.31
588.017	1993.31
588.111	1935.31
588.205	1992.31
588.3	1964.31
588.394	1959.31
588.488	1982.31
588.582	2085.31
588.676	2117.31
588.77	2356.31
588.864	3402.31
588.958	3643.31
589.052	3151.31
589.147	2531.31
589.241	2256.31
589.335	2170.31
589.429	2662.31
589.523	2985.31
589.617	2886.31
589.711	2470.31
589.805	2188.31
589.899	2081.31
589.993	1930.31
590.087	1937.31
590.181	1918.31
590.275	1951.31
590.369	1902.31
590.462	1882.31
590.556	1883.31
590.65	1890.31
590.744	1902.31
590.838	1865.31
590.932	1891.31
591.026	1977.31
591.12	2043.31
591.214	1886.31
591.307	1908.31
591.401	1999.31
591.495	2025.31
591.589	1922.31
591.683	1990.31
591.777	1988.31
591.87	2268.31
591.964	2027.31
592.058	1958.31
592.152	2021.31
592.245	2024.31
592.339	2098.31
592.433	2117.31
592.527	2178.31
592.62	2134.31
592.714	2154.31
592.808	2157.31
592.901	2198.31
592.995	2096.31
593.089	2408.31
593.182	2286.31
593.276	2191.31
593.37	2136.31
593.463	2155.31
593.557	2183.31
593.65	2164.31
593.744	2197.31
593.837	2275.31
593.931	2087.31
594.025	5630.31
594.118	2517.31
594.212	2096.31
594.305	2081.31
594.399	2189.31
594.492	2427.31
594.586	2040.31
594.679	2032.31
594.773	1968.31
594.866	1957.31
594.96	1939.31
595.053	1856.31
595.146	1835.31
595.24	1853.31
595.333	1923.31
595.427	1720.31
595.52	1738.31
595.614	1941.31
595.707	1771.31
595.8	1709.31
595.894	1749.31
595.987	1660.31
596.08	1612.31
596.174	2035.31
596.267	1811.31
596.36	1715.31
596.454	1771.31
596.547	1777.31
596.64	1605.31
596.733	1576.31
596.827	1693.31
596.92	1569.31
597.013	1531.31
597.106	1552.31
597.2	1546.31
597.293	1520.31
597.386	1702.31
597.479	1629.31
597.572	1558.31
597.666	1517.31
597.759	1528.31
597.852	1584.31
597.945	1451.31
598.038	1519.31
598.131	1406.31
598.224	1410.31
598.317	1575.31
598.411	1449.31
598.504	1457.31
598.597	1588.31
598.69	1513.31
598.783	1393.31
598.876	1476.31
598.969	1566.31
599.062	1424.31
599.155	1540.31
599.248	1514.31
599.341	1437.31
599.434	1401.31
599.527	1508.31
599.62	1416.31
599.713	1360.31
599.806	1538.31
599.899	1591.31
599.991	1349.31
600.084	1673.31
600.177	1423.31
600.27	1332.31
600.363	1587.31
600.456	1420.31
600.549	1429.31
600.642	1392.31
600.734	1437.31
600.827	1359.31
600.92	1518.31
601.013	1442.31
601.106	1469.31
601.199	1354.31
601.291	1376.31
601.384	1481.31
601.477	1535.31
601.57	1471.31
601.662	1407.31
601.755	1371.31
601.848	1450.31
601.94	1383.31
602.033	1479.31
602.126	1372.31
602.219	1359.31
602.311	1454.31
602.404	1391.31
602.497	1377.31
602.589	1358.31
602.682	1428.31
602.774	1419.31
602.867	1441.31
602.96	1385.31
603.052	1390.31
603.145	1382.31
603.237	1335.31
603.33	1367.31
603.422	1491.31
603.515	1329.31
603.608	1373.31
603.7	1351.31
603.793	1382.31
603.885	1335.31
603.978	1329.31
604.07	1349.31
604.163	1311.31
604.255	1333.31
604.347	1340.31
604.44	1271.31
604.532	1351.31
604.625	1337.31
604.717	1309.31
604.81	1352.31
604.902	1312.31
604.994	1283.31
605.087	1348.31
605.179	1257.31
605.271	1335.31
605.364	1325.31
605.456	1378.31
605.548	1367.31
605.641	1301.31
605.733	1327.31
605.825	1369.31
605.918	1281.31
606.01	1424.31
606.102	1686.31
606.194	1326.31
606.287	1457.31
606.379	1278.31
606.471	1356.31
606.563	1386.31
606.655	1423.31
606.748	1333.31
606.84	1219.31
606.932	1378.31
607.024	1290.31
607.116	1191.31
607.208	1292.31
607.301	1288.31
607.393	1251.31
607.485	1279.31
607.577	1272.31
607.669	1405.31
607.761	1328.31
607.853	1524.31
607.945	1300.31
608.037	1174.31
608.129	1240.31
608.221	1345.31
608.313	1231.31
608.405	1355.31
608.497	1295.31
608.589	1263.31
608.681	1261.31
608.773	1296.31
608.865	1319.31
608.957	1258.31
609.049	1244.31
609.141	1427.31
609.233	1188.31
609.325	1237.31
609.417	1276.31
609.509	1367.31
609.601	1392.31
609.693	1377.31
609.784	1287.31
609.876	1228.31
609.968	1265.31
610.06	3356.31
610.152	1420.31
610.244	1449.31
610.335	1251.31
610.427	1179.31
610.519	1238.31
610.611	1286.31
610.702	1224.31
610.794	1227.31
610.886	1264.31
610.978	1240.31
611.069	1593.31
611.161	1197.31
611.253	1271.31
611.344	1082.31
611.436	1104.31
611.528	1177.31
611.62	1063.31
611.711	1074.31
611.803	1068.31
611.894	1016.31
611.986	1056.31
612.078	1064.31
612.169	1037.31
612.261	999.31
612.352	1018.31
612.444	974.31
612.536	1067.31
612.627	982.31
612.719	917.31
612.81	846.31
612.902	839.31
612.993	952.31
613.085	878.31
613.176	809.31
613.268	883.31
613.359	814.31
613.451	822.31
613.542	896.31
613.634	807.31
613.725	855.31
613.816	894.31
613.908	835.31
613.999	754.31
614.091	714.31
614.182	716.31
614.273	739.31
614.365	654.31
614.456	651.31
614.547	634.31
614.639	592.31
614.73	622.31
614.821	709.31
614.913	519.31
615.004	522.31
615.095	596.31
615.187	509.31
