Data from 7g_HRC06701__47__169.txt Node

Date: Thu Apr 18 01:50:36 CDT 2024
User: Estudiantes 2
Spectrometer: HR+C0670
Trigger mode: 4
Integration Time (sec): 1.000000E0
Scans to average: 1
Electric dark correction enabled: true
Nonlinearity correction enabled: false
Boxcar width: 0
XAxis mode: Wavelengths
Number of Pixels in Spectrum: 2048
>>>>>Begin Spectral Data<<<<<
407.81	-84.81
407.921	-84.81
408.032	-84.81
408.143	-129.81
408.254	-140.81
408.365	60.19
408.476	232.19
408.587	-45.81
408.699	2.19
408.81	-22.81
408.921	-14.81
409.032	-43.81
409.143	74.19
409.254	-9.81
409.365	56.19
409.476	20.19
409.587	-13.81
409.698	61.19
409.809	129.19
409.92	-30.81
410.031	-41.81
410.142	101.19
410.253	35.19
410.364	34.19
410.475	740.19
410.585	3633.19
410.696	3762.19
410.807	3746.19
410.918	3821.19
411.029	3813.19
411.14	3786.19
411.251	3897.19
411.362	3824.19
411.472	3966.19
411.583	3872.19
411.694	4001.19
411.805	3877.19
411.916	3993.19
412.026	3994.19
412.137	3961.19
412.248	3964.19
412.359	4069.19
412.47	3859.19
412.58	3804.19
412.691	3910.19
412.802	3818.19
412.912	3811.19
413.023	3863.19
413.134	3777.19
413.245	3934.19
413.355	3841.19
413.466	3816.19
413.577	3869.19
413.687	3885.19
413.798	3796.19
413.909	3872.19
414.019	3914.19
414.13	3968.19
414.24	3854.19
414.351	3917.19
414.462	4063.19
414.572	3863.19
414.683	3915.19
414.793	3951.19
414.904	4269.19
415.014	3833.19
415.125	3809.19
415.235	3921.19
415.346	4017.19
415.456	3981.19
415.567	3973.19
415.677	3891.19
415.788	3873.19
415.898	3895.19
416.009	3768.19
416.119	3809.19
416.23	3839.19
416.34	3831.19
416.45	3825.19
416.561	4464.19
416.671	3960.19
416.782	3835.19
416.892	3885.19
417.002	3998.19
417.113	4047.19
417.223	3925.19
417.333	3913.19
417.444	3954.19
417.554	4148.19
417.664	4152.19
417.775	3982.19
417.885	4111.19
417.995	4051.19
418.106	4384.19
418.216	4206.19
418.326	4236.19
418.436	4385.19
418.547	4257.19
418.657	4243.19
418.767	4404.19
418.877	4317.19
418.987	4380.19
419.098	4373.19
419.208	4414.19
419.318	4420.19
419.428	4596.19
419.538	4372.19
419.648	4377.19
419.759	4508.19
419.869	4494.19
419.979	4421.19
420.089	4438.19
420.199	4517.19
420.309	4401.19
420.419	4442.19
420.529	4399.19
420.639	4736.19
420.749	4472.19
420.859	4543.19
420.969	4671.19
421.079	4767.19
421.189	4598.19
421.299	4598.19
421.409	4438.19
421.519	4707.19
421.629	4848.19
421.739	4689.19
421.849	4589.19
421.959	4661.19
422.069	4815.19
422.179	4645.19
422.289	4793.19
422.399	4932.19
422.509	4910.19
422.619	7886.19
422.729	5241.19
422.838	4907.19
422.948	5046.19
423.058	5053.19
423.168	5024.19
423.278	5047.19
423.388	5272.19
423.498	5293.19
423.607	5209.19
423.717	5531.19
423.827	5519.19
423.937	5370.19
424.046	5481.19
424.156	5640.19
424.266	5401.19
424.376	5630.19
424.485	5548.19
424.595	5458.19
424.705	5571.19
424.815	5607.19
424.924	6050.19
425.034	5597.19
425.144	5577.19
425.253	5700.19
425.363	5830.19
425.473	5793.19
425.582	5664.19
425.692	5724.19
425.801	5765.19
425.911	6018.19
426.021	5849.19
426.13	5991.19
426.24	6107.19
426.349	5960.19
426.459	5917.19
426.568	6005.19
426.678	6115.19
426.787	6036.19
426.897	5964.19
427.006	6126.19
427.116	6138.19
427.225	6051.19
427.335	6363.19
427.444	6135.19
427.554	6160.19
427.663	6273.19
427.773	6263.19
427.882	6391.19
427.992	6406.19
428.101	6445.19
428.21	6320.19
428.32	6463.19
428.429	6453.19
428.539	6705.19
428.648	6561.19
428.757	6662.19
428.867	6634.19
428.976	6876.19
429.085	6769.19
429.195	6606.19
429.304	6757.19
429.413	6815.19
429.523	6897.19
429.632	6872.19
429.741	6835.19
429.85	6828.19
429.96	7003.19
430.069	6848.19
430.178	7026.19
430.287	7316.19
430.397	6980.19
430.506	7057.19
430.615	7136.19
430.724	7215.19
430.833	7156.19
430.943	7219.19
431.052	7230.19
431.161	7246.19
431.27	7479.19
431.379	7339.19
431.488	7642.19
431.597	7637.19
431.706	7615.19
431.816	7635.19
431.925	7686.19
432.034	7595.19
432.143	7609.19
432.252	7604.19
432.361	7684.19
432.47	7574.19
432.579	7639.19
432.688	7551.19
432.797	7606.19
432.906	7488.19
433.015	7742.19
433.124	7871.19
433.233	7750.19
433.342	7667.19
433.451	7719.19
433.56	7599.19
433.669	7742.19
433.778	7732.19
433.886	7751.19
433.995	7820.19
434.104	7962.19
434.213	7964.19
434.322	7878.19
434.431	8197.19
434.54	8358.19
434.649	8474.19
434.757	8434.19
434.866	8198.19
434.975	8133.19
435.084	8085.19
435.193	8040.19
435.301	8005.19
435.41	7994.19
435.519	8112.19
435.628	7477.19
435.737	7377.19
435.845	7372.19
435.954	7250.19
436.063	7325.19
436.171	7394.19
436.28	7256.19
436.389	7366.19
436.498	7237.19
436.606	7300.19
436.715	7260.19
436.823	7079.19
436.932	7007.19
437.041	6797.19
437.149	6985.19
437.258	6804.19
437.367	6700.19
437.475	6677.19
437.584	7057.19
437.692	6656.19
437.801	8109.19
437.91	6777.19
438.018	6725.19
438.127	6553.19
438.235	6786.19
438.344	6662.19
438.452	6648.19
438.561	6440.19
438.669	6562.19
438.778	6499.19
438.886	6596.19
438.995	6459.19
439.103	6562.19
439.212	6502.19
439.32	6548.19
439.428	6526.19
439.537	6588.19
439.645	6690.19
439.754	6726.19
439.862	6546.19
439.97	6691.19
440.079	6724.19
440.187	6635.19
440.295	6899.19
440.404	6842.19
440.512	6709.19
440.62	6828.19
440.729	6883.19
440.837	6894.19
440.945	7619.19
441.054	7087.19
441.162	7038.19
441.27	7198.19
441.378	7293.19
441.487	7371.19
441.595	7666.19
441.703	7360.19
441.811	7281.19
441.92	7158.19
442.028	7006.19
442.136	7208.19
442.244	7073.19
442.352	6988.19
442.461	6885.19
442.569	7041.19
442.677	7007.19
442.785	7108.19
442.893	7060.19
443.001	6977.19
443.109	6886.19
443.217	7020.19
443.325	6982.19
443.434	7625.19
443.542	7542.19
443.65	7203.19
443.758	7454.19
443.866	7383.19
443.974	7769.19
444.082	7588.19
444.19	7693.19
444.298	7906.19
444.406	8043.19
444.514	8095.19
444.622	8312.19
444.73	8084.19
444.838	7987.19
444.946	7940.19
445.054	7693.19
445.161	7692.19
445.269	7447.19
445.377	7475.19
445.485	7394.19
445.593	7374.19
445.701	7369.19
445.809	7255.19
445.917	7296.19
446.025	7217.19
446.132	7429.19
446.24	7117.19
446.348	7276.19
446.456	7034.19
446.564	6998.19
446.671	7162.19
446.779	7103.19
446.887	7090.19
446.995	7006.19
447.102	7210.19
447.21	7062.19
447.318	6903.19
447.426	6979.19
447.533	7293.19
447.641	8273.19
447.749	7216.19
447.856	7077.19
447.964	6969.19
448.072	7068.19
448.179	6966.19
448.287	7177.19
448.395	7168.19
448.502	7074.19
448.61	7130.19
448.718	7178.19
448.825	7294.19
448.933	7097.19
449.04	7128.19
449.148	7260.19
449.256	7215.19
449.363	7213.19
449.471	7438.19
449.578	7459.19
449.686	7317.19
449.793	7629.19
449.901	7406.19
450.008	7565.19
450.116	7630.19
450.223	7789.19
450.331	7788.19
450.438	7857.19
450.546	7954.19
450.653	8102.19
450.76	8151.19
450.868	8010.19
450.975	8300.19
451.083	8057.19
451.19	8278.19
451.297	8036.19
451.405	8195.19
451.512	8190.19
451.619	8426.19
451.727	8419.19
451.834	8113.19
451.941	8275.19
452.049	8209.19
452.156	8454.19
452.263	8585.19
452.371	8572.19
452.478	8436.19
452.585	8622.19
452.692	8462.19
452.8	8606.19
452.907	8713.19
453.014	8580.19
453.121	8739.19
453.229	8797.19
453.336	8884.19
453.443	8896.19
453.55	8749.19
453.657	8746.19
453.765	8983.19
453.872	8777.19
453.979	8954.19
454.086	9092.19
454.193	9026.19
454.3	8994.19
454.407	9189.19
454.514	9001.19
454.621	9022.19
454.729	9156.19
454.836	9077.19
454.943	9238.19
455.05	9217.19
455.157	9337.19
455.264	9155.19
455.371	9467.19
455.478	9322.19
455.585	10740.19
455.692	9656.19
455.799	9746.19
455.906	9406.19
456.013	9365.19
456.12	9573.19
456.227	9560.19
456.334	9739.19
456.44	9901.19
456.547	9860.19
456.654	9644.19
456.761	9898.19
456.868	9951.19
456.975	10087.19
457.082	9980.19
457.189	9949.19
457.296	10031.19
457.402	10046.19
457.509	9977.19
457.616	10177.19
457.723	10588.19
457.83	10382.19
457.936	10400.19
458.043	10818.19
458.15	10587.19
458.257	10687.19
458.363	10829.19
458.47	11015.19
458.577	11237.19
458.684	11193.19
458.79	11610.19
458.897	11642.19
459.004	11797.19
459.11	11689.19
459.217	11929.19
459.324	12151.19
459.43	12290.19
459.537	12516.19
459.644	12549.19
459.75	12578.19
459.857	12955.19
459.964	12804.19
460.07	12842.19
460.177	13182.19
460.283	13217.19
460.39	13389.19
460.496	13121.19
460.603	13206.19
460.71	13091.19
460.816	13100.19
460.923	13104.19
461.029	13217.19
461.136	13286.19
461.242	13030.19
461.349	13098.19
461.455	13288.19
461.562	13512.19
461.668	13524.19
461.774	13434.19
461.881	13724.19
461.987	13776.19
462.094	13785.19
462.2	14145.19
462.307	14034.19
462.413	14038.19
462.519	14335.19
462.626	14543.19
462.732	14543.19
462.838	14543.19
462.945	14543.19
463.051	14543.19
463.157	14543.19
463.264	14543.19
463.37	14543.19
463.476	14543.19
463.583	14383.19
463.689	14474.19
463.795	14251.19
463.901	14182.19
464.008	14442.19
464.114	14446.19
464.22	14252.19
464.326	14146.19
464.433	13815.19
464.539	13682.19
464.645	13534.19
464.751	13446.19
464.857	12967.19
464.963	12529.19
465.07	12396.19
465.176	12037.19
465.282	11765.19
465.388	11560.19
465.494	11395.19
465.6	11126.19
465.706	10746.19
465.812	10672.19
465.918	10719.19
466.024	10470.19
466.131	10368.19
466.237	10019.19
466.343	9920.19
466.449	9834.19
466.555	9760.19
466.661	9619.19
466.767	9521.19
466.873	9565.19
466.979	9492.19
467.085	9374.19
467.191	9511.19
467.296	9313.19
467.402	9237.19
467.508	9314.19
467.614	9265.19
467.72	8948.19
467.826	8907.19
467.932	8958.19
468.038	8777.19
468.144	8769.19
468.25	8569.19
468.355	8594.19
468.461	8631.19
468.567	8481.19
468.673	8497.19
468.779	8408.19
468.885	8499.19
468.99	8310.19
469.096	8435.19
469.202	8558.19
469.308	8553.19
469.413	8599.19
469.519	8558.19
469.625	8500.19
469.731	8608.19
469.836	8516.19
469.942	8681.19
470.048	8567.19
470.153	8642.19
470.259	8673.19
470.365	8798.19
470.47	8687.19
470.576	8532.19
470.682	8506.19
470.787	8384.19
470.893	8190.19
470.999	8342.19
471.104	8134.19
471.21	7963.19
471.315	7851.19
471.421	7795.19
471.527	7941.19
471.632	7955.19
471.738	7713.19
471.843	7597.19
471.949	7716.19
472.054	7610.19
472.16	7483.19
472.265	7379.19
472.371	7385.19
472.476	7355.19
472.582	7337.19
472.687	7372.19
472.793	7286.19
472.898	7300.19
473.003	7278.19
473.109	7128.19
473.214	7042.19
473.32	7171.19
473.425	7012.19
473.53	7113.19
473.636	7029.19
473.741	7084.19
473.847	6971.19
473.952	7100.19
474.057	7142.19
474.163	7127.19
474.268	7020.19
474.373	7086.19
474.478	7094.19
474.584	7027.19
474.689	7048.19
474.794	7027.19
474.9	7342.19
475.005	7054.19
475.11	7166.19
475.215	6996.19
475.321	6949.19
475.426	7275.19
475.531	7124.19
475.636	7015.19
475.741	7106.19
475.846	7150.19
475.952	7405.19
476.057	7190.19
476.162	7286.19
476.267	7246.19
476.372	7452.19
476.477	7245.19
476.582	7283.19
476.687	7265.19
476.793	7439.19
476.898	7372.19
477.003	7461.19
477.108	7412.19
477.213	7437.19
477.318	7414.19
477.423	7574.19
477.528	7778.19
477.633	7793.19
477.738	7870.19
477.843	7727.19
477.948	7830.19
478.053	7882.19
478.158	7915.19
478.263	7991.19
478.368	8087.19
478.473	8260.19
478.578	8260.19
478.682	8134.19
478.787	8315.19
478.892	8244.19
478.997	8367.19
479.102	8428.19
479.207	8309.19
479.312	8338.19
479.417	8354.19
479.521	8420.19
479.626	8406.19
479.731	8487.19
479.836	8680.19
479.941	8819.19
480.045	8905.19
480.15	9130.19
480.255	8932.19
480.36	8900.19
480.465	9027.19
480.569	9115.19
480.674	8891.19
480.779	8685.19
480.883	8742.19
480.988	8778.19
481.093	8643.19
481.197	8654.19
481.302	8609.19
481.407	8439.19
481.511	10356.19
481.616	8658.19
481.721	8661.19
481.825	8687.19
481.93	8457.19
482.035	8563.19
482.139	8747.19
482.244	8689.19
482.348	8702.19
482.453	8764.19
482.557	8861.19
482.662	8705.19
482.767	8828.19
482.871	8965.19
482.976	8833.19
483.08	8881.19
483.185	9213.19
483.289	9013.19
483.394	8940.19
483.498	9172.19
483.603	9068.19
483.707	9196.19
483.811	9217.19
483.916	9230.19
484.02	9249.19
484.125	9474.19
484.229	9430.19
484.333	9585.19
484.438	9508.19
484.542	9696.19
484.647	9698.19
484.751	9781.19
484.855	9970.19
484.96	9829.19
485.064	9928.19
485.168	10047.19
485.273	9963.19
485.377	10078.19
485.481	10400.19
485.585	10306.19
485.69	10275.19
485.794	10334.19
485.898	10430.19
486.002	10411.19
486.107	10413.19
486.211	10426.19
486.315	10440.19
486.419	10556.19
486.524	10566.19
486.628	10397.19
486.732	10402.19
486.836	10518.19
486.94	10608.19
487.044	10527.19
487.148	10474.19
487.253	10537.19
487.357	10573.19
487.461	10779.19
487.565	10523.19
487.669	10536.19
487.773	10453.19
487.877	10637.19
487.981	10769.19
488.085	10637.19
488.189	10435.19
488.293	10839.19
488.397	10940.19
488.501	10551.19
488.605	10663.19
488.709	10658.19
488.813	10694.19
488.917	10525.19
489.021	10580.19
489.125	10852.19
489.229	10638.19
489.333	10989.19
489.437	10774.19
489.541	10826.19
489.645	10735.19
489.749	10890.19
489.853	10941.19
489.956	10853.19
490.06	10732.19
490.164	10826.19
490.268	10714.19
490.372	10884.19
490.476	10796.19
490.579	10853.19
490.683	11546.19
490.787	10857.19
490.891	10871.19
490.995	10953.19
491.098	10851.19
491.202	10908.19
491.306	11014.19
491.41	10886.19
491.513	10818.19
491.617	10915.19
491.721	10938.19
491.824	11001.19
491.928	10945.19
492.032	11165.19
492.136	10845.19
492.239	10894.19
492.343	11057.19
492.446	11348.19
492.55	10938.19
492.654	10898.19
492.757	10893.19
492.861	11133.19
492.965	11035.19
493.068	10957.19
493.172	11024.19
493.275	10892.19
493.379	10989.19
493.482	11099.19
493.586	11057.19
493.689	11293.19
493.793	11089.19
493.896	11217.19
494	11159.19
494.103	11143.19
494.207	11370.19
494.31	11538.19
494.414	11060.19
494.517	11157.19
494.621	10986.19
494.724	11106.19
494.828	10934.19
494.931	10828.19
495.034	11011.19
495.138	11065.19
495.241	11005.19
495.345	11734.19
495.448	11037.19
495.551	10826.19
495.655	10866.19
495.758	10874.19
495.861	10770.19
495.965	11004.19
496.068	10908.19
496.171	11081.19
496.274	10949.19
496.378	10980.19
496.481	11000.19
496.584	11083.19
496.687	11116.19
496.791	11015.19
496.894	11214.19
496.997	11229.19
497.1	11277.19
497.204	11390.19
497.307	11444.19
497.41	11719.19
497.513	11823.19
497.616	11866.19
497.719	11787.19
497.823	11838.19
497.926	12083.19
498.029	12379.19
498.132	12505.19
498.235	12784.19
498.338	12973.19
498.441	13271.19
498.544	13440.19
498.647	13832.19
498.75	14249.19
498.853	14543.19
498.956	14543.19
499.059	14543.19
499.163	14543.19
499.266	14543.19
499.369	14543.19
499.471	14543.19
499.574	14543.19
499.677	14543.19
499.78	14543.19
499.883	14543.19
499.986	14543.19
500.089	14543.19
500.192	14543.19
500.295	14543.19
500.398	14543.19
500.501	14543.19
500.604	14543.19
500.707	14543.19
500.809	14543.19
500.912	14543.19
501.015	14543.19
501.118	14543.19
501.221	14543.19
501.324	14543.19
501.426	14543.19
501.529	14543.19
501.632	14477.19
501.735	14031.19
501.837	13677.19
501.94	13212.19
502.043	13103.19
502.146	12800.19
502.248	12478.19
502.351	12283.19
502.454	11866.19
502.557	11591.19
502.659	11592.19
502.762	11108.19
502.865	11053.19
502.967	10841.19
503.07	10656.19
503.173	10385.19
503.275	10443.19
503.378	10373.19
503.48	10154.19
503.583	10250.19
503.686	10100.19
503.788	10187.19
503.891	9985.19
503.993	10218.19
504.096	9978.19
504.198	10033.19
504.301	9914.19
504.403	10001.19
504.506	9843.19
504.608	9650.19
504.711	9617.19
504.813	9371.19
504.916	9107.19
505.018	8924.19
505.121	8699.19
505.223	8881.19
505.326	8561.19
505.428	8553.19
505.531	8436.19
505.633	8315.19
505.735	8221.19
505.838	8179.19
505.94	8132.19
506.042	8148.19
506.145	7829.19
506.247	8005.19
506.35	7818.19
506.452	7911.19
506.554	7854.19
506.656	7891.19
506.759	7705.19
506.861	7855.19
506.963	7556.19
507.066	7732.19
507.168	7624.19
507.27	7642.19
507.372	7516.19
507.475	7471.19
507.577	7490.19
507.679	7485.19
507.781	7334.19
507.883	7437.19
507.986	7424.19
508.088	7243.19
508.19	7300.19
508.292	7298.19
508.394	7210.19
508.496	7156.19
508.598	7218.19
508.701	7159.19
508.803	7023.19
508.905	7068.19
509.007	7042.19
509.109	7083.19
509.211	7175.19
509.313	7100.19
509.415	7075.19
509.517	7016.19
509.619	6979.19
509.721	7002.19
509.823	6922.19
509.925	7161.19
510.027	6930.19
510.129	6989.19
510.231	6999.19
510.333	6877.19
510.435	6886.19
510.537	6971.19
510.639	7049.19
510.741	6932.19
510.843	6953.19
510.945	6958.19
511.047	7004.19
511.148	6958.19
511.25	6943.19
511.352	6984.19
511.454	6821.19
511.556	6988.19
511.658	6915.19
511.76	7003.19
511.861	7148.19
511.963	6798.19
512.065	6855.19
512.167	6750.19
512.268	7211.19
512.37	7020.19
512.472	7030.19
512.574	7063.19
512.676	7183.19
512.777	6961.19
512.879	6900.19
512.981	7084.19
513.082	7032.19
513.184	6934.19
513.286	7367.19
513.387	7069.19
513.489	7139.19
513.591	7163.19
513.692	7132.19
513.794	7225.19
513.896	7070.19
513.997	7185.19
514.099	7208.19
514.2	7213.19
514.302	7208.19
514.404	7142.19
514.505	7275.19
514.607	7391.19
514.708	7345.19
514.81	7563.19
514.911	7563.19
515.013	7591.19
515.114	7379.19
515.216	7491.19
515.317	7673.19
515.419	7629.19
515.52	7752.19
515.622	7800.19
515.723	7854.19
515.825	8139.19
515.926	7958.19
516.027	7923.19
516.129	8129.19
516.23	8311.19
516.332	8300.19
516.433	8443.19
516.534	8610.19
516.636	8645.19
516.737	8744.19
516.838	9920.19
516.94	9131.19
517.041	9322.19
517.142	9600.19
517.244	9621.19
517.345	9570.19
517.446	9820.19
517.547	9837.19
517.649	9865.19
517.75	9754.19
517.851	9735.19
517.952	9920.19
518.054	9736.19
518.155	9728.19
518.256	9507.19
518.357	9442.19
518.458	9217.19
518.56	9071.19
518.661	8936.19
518.762	9013.19
518.863	9046.19
518.964	8902.19
519.065	8741.19
519.166	8715.19
519.268	8569.19
519.369	8744.19
519.47	8372.19
519.571	8564.19
519.672	8396.19
519.773	8425.19
519.874	8404.19
519.975	8162.19
520.076	8312.19
520.177	8346.19
520.278	8238.19
520.379	8253.19
520.48	8142.19
520.581	8029.19
520.682	8050.19
520.783	8008.19
520.884	8232.19
520.985	8116.19
521.086	8095.19
521.187	8048.19
521.288	7870.19
521.389	8003.19
521.489	7999.19
521.59	7873.19
521.691	7909.19
521.792	7963.19
521.893	8105.19
521.994	8067.19
522.095	7960.19
522.195	8117.19
522.296	8034.19
522.397	8021.19
522.498	8005.19
522.599	7851.19
522.699	7878.19
522.8	8005.19
522.901	8021.19
523.002	8020.19
523.102	8227.19
523.203	7910.19
523.304	8139.19
523.405	8037.19
523.505	8008.19
523.606	8029.19
523.707	8036.19
523.807	8025.19
523.908	8024.19
524.009	8089.19
524.109	8122.19
524.21	7945.19
524.31	7994.19
524.411	8142.19
524.512	8137.19
524.612	7977.19
524.713	8222.19
524.813	8074.19
524.914	8296.19
525.014	12254.19
525.115	8221.19
525.216	7909.19
525.316	8014.19
525.417	8168.19
525.517	8023.19
525.618	7985.19
525.718	7940.19
525.819	7835.19
525.919	8064.19
526.019	7869.19
526.12	7968.19
526.22	7878.19
526.321	7894.19
526.421	7855.19
526.522	7916.19
526.622	7794.19
526.722	7924.19
526.823	7835.19
526.923	7886.19
527.023	8013.19
527.124	7823.19
527.224	7978.19
527.324	7862.19
527.425	7920.19
527.525	7790.19
527.625	7928.19
527.726	7900.19
527.826	7894.19
527.926	8012.19
528.026	8022.19
528.127	7850.19
528.227	7905.19
528.327	8019.19
528.427	7893.19
528.528	8039.19
528.628	7982.19
528.728	7869.19
528.828	7916.19
528.928	7964.19
529.029	7878.19
529.129	8046.19
529.229	7977.19
529.329	7986.19
529.429	7910.19
529.529	7982.19
529.629	7910.19
529.729	7706.19
529.829	7862.19
529.93	7719.19
530.03	7657.19
530.13	7714.19
530.23	7678.19
530.33	7650.19
530.43	7586.19
530.53	7560.19
530.63	7611.19
530.73	7689.19
530.83	7432.19
530.93	7593.19
531.03	7437.19
531.13	7518.19
531.23	7534.19
531.33	7476.19
531.429	7515.19
531.529	7522.19
531.629	7607.19
531.729	7377.19
531.829	7434.19
531.929	7437.19
532.029	7432.19
532.129	7494.19
532.229	7571.19
532.328	7234.19
532.428	7394.19
532.528	7331.19
532.628	7245.19
532.728	7282.19
532.827	7195.19
532.927	7357.19
533.027	7244.19
533.127	7357.19
533.227	7416.19
533.326	7369.19
533.426	7213.19
533.526	7490.19
533.625	7417.19
533.725	7495.19
533.825	7203.19
533.924	7050.19
534.024	7027.19
534.124	6949.19
534.223	6996.19
534.323	7438.19
534.423	6999.19
534.522	7057.19
534.622	6790.19
534.722	6883.19
534.821	6911.19
534.921	6797.19
535.02	6746.19
535.12	6776.19
535.219	7037.19
535.319	6940.19
535.419	6828.19
535.518	6823.19
535.618	6661.19
535.717	6700.19
535.817	6599.19
535.916	6421.19
536.016	6629.19
536.115	6469.19
536.215	6418.19
536.314	6336.19
536.413	6225.19
536.513	6341.19
536.612	6371.19
536.712	6226.19
536.811	6192.19
536.91	6186.19
537.01	6154.19
537.109	6212.19
537.209	6188.19
537.308	6057.19
537.407	6240.19
537.507	6185.19
537.606	6113.19
537.705	6244.19
537.805	6112.19
537.904	6103.19
538.003	6138.19
538.102	6163.19
538.202	5966.19
538.301	6078.19
538.4	6144.19
538.499	6103.19
538.599	6078.19
538.698	6461.19
538.797	6049.19
538.896	6170.19
538.995	6112.19
539.095	6000.19
539.194	6225.19
539.293	5915.19
539.392	5885.19
539.491	5847.19
539.59	5771.19
539.689	5949.19
539.789	5835.19
539.888	5655.19
539.987	5617.19
540.086	5730.19
540.185	5686.19
540.284	5753.19
540.383	5762.19
540.482	5746.19
540.581	5900.19
540.68	5688.19
540.779	5760.19
540.878	5771.19
540.977	5920.19
541.076	5753.19
541.175	5801.19
541.274	6063.19
541.373	5830.19
541.472	5755.19
541.571	5700.19
541.67	6878.19
541.769	5808.19
541.868	5721.19
541.966	5747.19
542.065	5676.19
542.164	5727.19
542.263	5665.19
542.362	5576.19
542.461	5681.19
542.56	5605.19
542.658	5639.19
542.757	5505.19
542.856	5431.19
542.955	5469.19
543.054	5364.19
543.152	5626.19
543.251	5348.19
543.35	5593.19
543.449	5531.19
543.547	5525.19
543.646	5458.19
543.745	5636.19
543.843	5697.19
543.942	5495.19
544.041	5596.19
544.14	5774.19
544.238	5619.19
544.337	5811.19
544.436	5652.19
544.534	5737.19
544.633	5620.19
544.731	5603.19
544.83	5654.19
544.929	5646.19
545.027	5660.19
545.126	5706.19
545.224	5748.19
545.323	5669.19
545.421	5699.19
545.52	5575.19
545.619	5767.19
545.717	5602.19
545.816	5691.19
545.914	5622.19
546.013	5882.19
546.111	5772.19
546.209	5527.19
546.308	5526.19
546.406	5580.19
546.505	5622.19
546.603	5685.19
546.702	5679.19
546.8	5504.19
546.899	5384.19
546.997	5760.19
547.095	5559.19
547.194	5601.19
547.292	5641.19
547.39	5698.19
547.489	5601.19
547.587	5847.19
547.685	5521.19
547.784	5815.19
547.882	5643.19
547.98	5559.19
548.079	5675.19
548.177	5618.19
548.275	5626.19
548.373	5676.19
548.472	5696.19
548.57	5602.19
548.668	5659.19
548.766	5524.19
548.864	5670.19
548.963	5616.19
549.061	5801.19
549.159	5457.19
549.257	5805.19
549.355	5703.19
549.454	5664.19
549.552	5666.19
549.65	5624.19
549.748	5628.19
549.846	5707.19
549.944	5600.19
550.042	5467.19
550.14	5559.19
550.238	5543.19
550.336	5425.19
550.434	5410.19
550.532	5571.19
550.631	5521.19
550.729	5532.19
550.827	5613.19
550.925	5457.19
551.023	5366.19
551.121	5457.19
551.218	5501.19
551.316	5310.19
551.414	5285.19
551.512	5294.19
551.61	5487.19
551.708	5502.19
551.806	5509.19
551.904	5531.19
552.002	5469.19
552.1	5672.19
552.198	5664.19
552.296	5805.19
552.393	5865.19
552.491	6058.19
552.589	5974.19
552.687	6041.19
552.785	5998.19
552.882	6090.19
552.98	6202.19
553.078	6082.19
553.176	6062.19
553.274	5997.19
553.371	6084.19
553.469	5904.19
553.567	5875.19
553.665	5914.19
553.762	6286.19
553.86	5839.19
553.958	5850.19
554.055	5701.19
554.153	5804.19
554.251	5745.19
554.348	5735.19
554.446	5517.19
554.544	5571.19
554.641	5975.19
554.739	5524.19
554.837	5431.19
554.934	5727.19
555.032	5408.19
555.129	5361.19
555.227	5694.19
555.324	8640.19
555.422	5627.19
555.519	5341.19
555.617	5246.19
555.715	5060.19
555.812	5528.19
555.91	5297.19
556.007	5269.19
556.105	5132.19
556.202	5145.19
556.299	5084.19
556.397	5159.19
556.494	5169.19
556.592	5100.19
556.689	5223.19
556.787	5155.19
556.884	5201.19
556.981	5060.19
557.079	5067.19
557.176	5150.19
557.273	5068.19
557.371	5163.19
557.468	5153.19
557.566	5128.19
557.663	5024.19
557.76	5148.19
557.857	5056.19
557.955	5020.19
558.052	5131.19
558.149	5186.19
558.247	5241.19
558.344	5056.19
558.441	5154.19
558.538	5048.19
558.636	5124.19
558.733	5089.19
558.83	5025.19
558.927	5072.19
559.024	5041.19
559.122	5012.19
559.219	4990.19
559.316	5152.19
559.413	5242.19
559.51	5043.19
559.607	4987.19
559.704	5117.19
559.801	5108.19
559.899	4945.19
559.996	5374.19
560.093	5095.19
560.19	5001.19
560.287	5062.19
560.384	5190.19
560.481	5088.19
560.578	5090.19
560.675	5107.19
560.772	5097.19
560.869	5141.19
560.966	5405.19
561.063	5150.19
561.16	5113.19
561.257	5269.19
561.354	5105.19
561.451	5121.19
561.548	5290.19
561.645	5449.19
561.742	5118.19
561.838	5182.19
561.935	5177.19
562.032	5062.19
562.129	5218.19
562.226	5211.19
562.323	5298.19
562.42	5255.19
562.516	5198.19
562.613	5164.19
562.71	5237.19
562.807	6162.19
562.904	5269.19
563	5197.19
563.097	5349.19
563.194	5320.19
563.291	5265.19
563.387	5339.19
563.484	5439.19
563.581	5395.19
563.678	5373.19
563.774	5926.19
563.871	5452.19
563.968	5521.19
564.064	5555.19
564.161	5441.19
564.258	5518.19
564.354	5740.19
564.451	5804.19
564.548	5747.19
564.644	5669.19
564.741	5813.19
564.837	5651.19
564.934	5898.19
565.031	6014.19
565.127	5995.19
565.224	6123.19
565.32	6389.19
565.417	6166.19
565.513	6361.19
565.61	6493.19
565.706	6557.19
565.803	6573.19
565.899	6728.19
565.996	7025.19
566.092	7055.19
566.189	7218.19
566.285	7469.19
566.382	7640.19
566.478	7905.19
566.574	8025.19
566.671	7923.19
566.767	7999.19
566.864	7994.19
566.96	8172.19
567.056	8132.19
567.153	8427.19
567.249	8432.19
567.345	8601.19
567.442	8782.19
567.538	8971.19
567.634	8951.19
567.731	8887.19
567.827	9054.19
567.923	8867.19
568.019	8434.19
568.116	8258.19
568.212	7962.19
568.308	7652.19
568.404	7556.19
568.501	7246.19
568.597	7129.19
568.693	6740.19
568.789	7309.19
568.885	6399.19
568.982	6351.19
569.078	6165.19
569.174	6140.19
569.27	5946.19
569.366	5982.19
569.462	5809.19
569.558	5586.19
569.655	5654.19
569.751	5557.19
569.847	5511.19
569.943	5381.19
570.039	5376.19
570.135	5818.19
570.231	5274.19
570.327	5622.19
570.423	5398.19
570.519	5451.19
570.615	5347.19
570.711	5464.19
570.807	5434.19
570.903	5321.19
570.999	5440.19
571.095	5406.19
571.191	5258.19
571.287	5312.19
571.383	5182.19
571.479	5119.19
571.574	5090.19
571.67	4939.19
571.766	5023.19
571.862	4902.19
571.958	4751.19
572.054	4845.19
572.15	4628.19
572.246	4595.19
572.341	4728.19
572.437	4567.19
572.533	4759.19
572.629	4484.19
572.725	4530.19
572.82	4493.19
572.916	4418.19
573.012	4470.19
573.108	4595.19
573.203	4338.19
573.299	4315.19
573.395	4225.19
573.49	4241.19
573.586	4183.19
573.682	4231.19
573.778	4457.19
573.873	4184.19
573.969	4161.19
574.065	4193.19
574.16	4240.19
574.256	4254.19
574.351	4284.19
574.447	4116.19
574.543	4138.19
574.638	4273.19
574.734	4272.19
574.829	4329.19
574.925	4163.19
575.02	4136.19
575.116	4081.19
575.212	4087.19
575.307	4236.19
575.403	3918.19
575.498	4082.19
575.594	3970.19
575.689	3934.19
575.784	3968.19
575.88	3982.19
575.975	3904.19
576.071	3872.19
576.166	3855.19
576.262	3942.19
576.357	3745.19
576.452	4044.19
576.548	3880.19
576.643	3782.19
576.739	3855.19
576.834	3767.19
576.929	3777.19
577.025	4420.19
577.12	3733.19
577.215	3585.19
577.311	3640.19
577.406	3693.19
577.501	3815.19
577.597	3545.19
577.692	3714.19
577.787	3694.19
577.882	3500.19
577.978	3603.19
578.073	3515.19
578.168	3441.19
578.263	3417.19
578.358	3477.19
578.454	3339.19
578.549	3390.19
578.644	3339.19
578.739	3444.19
578.834	3313.19
578.929	3211.19
579.025	3325.19
579.12	3339.19
579.215	3562.19
579.31	3503.19
579.405	3224.19
579.5	3301.19
579.595	3291.19
579.69	3136.19
579.785	3171.19
579.88	3222.19
579.975	3237.19
580.07	3136.19
580.165	3182.19
580.26	3295.19
580.355	3154.19
580.45	3054.19
580.545	3172.19
580.64	3082.19
580.735	3132.19
580.83	3168.19
580.925	3049.19
581.02	2987.19
581.115	3093.19
581.21	2935.19
581.305	3019.19
581.4	3100.19
581.495	3022.19
581.589	2968.19
581.684	2898.19
581.779	3020.19
581.874	3037.19
581.969	2994.19
582.064	2989.19
582.158	2881.19
582.253	2858.19
582.348	2930.19
582.443	2973.19
582.537	2918.19
582.632	3092.19
582.727	2968.19
582.822	2810.19
582.916	2817.19
583.011	2844.19
583.106	2859.19
583.201	2763.19
583.295	2850.19
583.39	2700.19
583.485	2696.19
583.579	4640.19
583.674	2919.19
583.769	2953.19
583.863	2776.19
583.958	2791.19
584.052	2626.19
584.147	2629.19
584.242	2716.19
584.336	2685.19
584.431	2866.19
584.525	2717.19
584.62	2845.19
584.714	2678.19
584.809	2772.19
584.903	2699.19
584.998	2726.19
585.092	2636.19
585.187	2669.19
585.281	2587.19
585.376	2649.19
585.47	2710.19
585.565	2687.19
585.659	2513.19
585.754	2606.19
585.848	2615.19
585.942	2595.19
586.037	2583.19
586.131	4753.19
586.226	2689.19
586.32	2634.19
586.414	2430.19
586.509	2611.19
586.603	2543.19
586.697	2553.19
586.792	2460.19
586.886	2412.19
586.98	2605.19
587.075	2541.19
587.169	2426.19
587.263	2613.19
587.357	2485.19
587.452	2413.19
587.546	2469.19
587.64	2465.19
587.734	2444.19
587.829	2517.19
587.923	2520.19
588.017	2356.19
588.111	2345.19
588.205	2473.19
588.3	2293.19
588.394	2368.19
588.488	2407.19
588.582	2441.19
588.676	2501.19
588.77	2894.19
588.864	3893.19
588.958	3950.19
589.052	3422.19
589.147	2966.19
589.241	2675.19
589.335	2654.19
589.429	3249.19
589.523	3391.19
589.617	3281.19
589.711	2875.19
589.805	2530.19
589.899	2536.19
589.993	2403.19
590.087	2330.19
590.181	2362.19
590.275	2444.19
590.369	2306.19
590.462	2291.19
590.556	2294.19
590.65	2341.19
590.744	2281.19
590.838	2313.19
590.932	2343.19
591.026	2390.19
591.12	2438.19
591.214	2365.19
591.307	2397.19
591.401	2375.19
591.495	2492.19
591.589	2390.19
591.683	2420.19
591.777	2486.19
591.87	2804.19
591.964	2494.19
592.058	2376.19
592.152	2558.19
592.245	2497.19
592.339	2598.19
592.433	2663.19
592.527	2609.19
592.62	2523.19
592.714	2664.19
592.808	2731.19
592.901	2644.19
592.995	2641.19
593.089	2976.19
593.182	2658.19
593.276	2591.19
593.37	2716.19
593.463	2616.19
593.557	2670.19
593.65	2683.19
593.744	2639.19
593.837	2770.19
593.931	2656.19
594.025	6366.19
594.118	2963.19
594.212	2671.19
594.305	2614.19
594.399	2621.19
594.492	2796.19
594.586	2494.19
594.679	2440.19
594.773	2480.19
594.866	2568.19
594.96	2422.19
595.053	2287.19
595.146	2384.19
595.24	2343.19
595.333	2291.19
595.427	2218.19
595.52	2174.19
595.614	2327.19
595.707	2152.19
595.8	2195.19
595.894	2123.19
595.987	2121.19
596.08	2109.19
596.174	2435.19
596.267	2155.19
596.36	2210.19
596.454	2259.19
596.547	2115.19
596.64	2027.19
596.733	2028.19
596.827	2035.19
596.92	1998.19
597.013	1942.19
597.106	1918.19
597.2	1919.19
597.293	1872.19
597.386	2043.19
597.479	1986.19
597.572	1933.19
597.666	1834.19
597.759	1803.19
597.852	1947.19
597.945	1801.19
598.038	1789.19
598.131	1868.19
598.224	1860.19
598.317	1867.19
598.411	1883.19
598.504	1817.19
598.597	1889.19
598.69	1771.19
598.783	1806.19
598.876	1859.19
598.969	1816.19
599.062	1706.19
599.155	1920.19
599.248	1788.19
599.341	1817.19
599.434	1843.19
599.527	1782.19
599.62	1726.19
599.713	1737.19
599.806	1814.19
599.899	1905.19
599.991	1795.19
600.084	2000.19
600.177	1709.19
600.27	1733.19
600.363	1941.19
600.456	1750.19
600.549	1756.19
600.642	1705.19
600.734	1704.19
600.827	1759.19
600.92	1816.19
601.013	1711.19
601.106	1830.19
601.199	1688.19
601.291	1761.19
601.384	1754.19
601.477	1969.19
601.57	1823.19
601.662	1681.19
601.755	1722.19
601.848	1821.19
601.94	1733.19
602.033	1843.19
602.126	1754.19
602.219	1713.19
602.311	1836.19
602.404	1755.19
602.497	1699.19
602.589	1639.19
602.682	1757.19
602.774	1738.19
602.867	1704.19
602.96	1669.19
603.052	1745.19
603.145	1672.19
603.237	1697.19
603.33	1728.19
603.422	1780.19
603.515	1620.19
603.608	1710.19
603.7	1665.19
603.793	1649.19
603.885	1717.19
603.978	1704.19
604.07	1581.19
604.163	1587.19
604.255	1757.19
604.347	1566.19
604.44	1594.19
604.532	1710.19
604.625	1596.19
604.717	1597.19
604.81	1706.19
604.902	1659.19
604.994	1552.19
605.087	1623.19
605.179	1644.19
605.271	1630.19
605.364	1677.19
605.456	1710.19
605.548	1621.19
605.641	1644.19
605.733	1669.19
605.825	1560.19
605.918	1575.19
606.01	1843.19
606.102	1984.19
606.194	1614.19
606.287	1792.19
606.379	1570.19
606.471	1601.19
606.563	1681.19
606.655	1772.19
606.748	1660.19
606.84	1579.19
606.932	1688.19
607.024	1549.19
607.116	1592.19
607.208	1682.19
607.301	1637.19
607.393	1556.19
607.485	1643.19
607.577	1670.19
607.669	1666.19
607.761	1651.19
607.853	1917.19
607.945	1531.19
608.037	1495.19
608.129	1616.19
608.221	1533.19
608.313	1503.19
608.405	1647.19
608.497	1526.19
608.589	1549.19
608.681	1566.19
608.773	1694.19
608.865	1603.19
608.957	1576.19
609.049	1518.19
609.141	1608.19
609.233	1527.19
609.325	1532.19
609.417	1534.19
609.509	1606.19
609.601	1703.19
609.693	1630.19
609.784	1587.19
609.876	1573.19
609.968	1592.19
610.06	3590.19
610.152	1742.19
610.244	2392.19
610.335	1581.19
610.427	1555.19
610.519	1563.19
610.611	1517.19
610.702	1482.19
610.794	1563.19
610.886	1523.19
610.978	1458.19
611.069	1926.19
611.161	1449.19
611.253	1458.19
611.344	1412.19
611.436	1344.19
611.528	1441.19
611.62	1312.19
611.711	1357.19
611.803	1298.19
611.894	1310.19
611.986	1340.19
612.078	1305.19
612.169	1279.19
612.261	1255.19
612.352	1224.19
612.444	1192.19
612.536	1273.19
612.627	1192.19
612.719	1079.19
612.81	1119.19
612.902	1123.19
612.993	1139.19
613.085	1082.19
613.176	1033.19
613.268	1045.19
613.359	1053.19
613.451	1053.19
613.542	1018.19
613.634	974.19
613.725	1006.19
613.816	1119.19
613.908	937.19
613.999	919.19
614.091	896.19
614.182	839.19
614.273	861.19
614.365	818.19
614.456	737.19
614.547	794.19
614.639	770.19
614.73	753.19
614.821	773.19
614.913	695.19
615.004	670.19
615.095	642.19
615.187	590.19
