Data from 7g_HRC06701__48__170.txt Node

Date: Thu Apr 18 01:50:37 CDT 2024
User: Estudiantes 2
Spectrometer: HR+C0670
Trigger mode: 4
Integration Time (sec): 1.000000E0
Scans to average: 1
Electric dark correction enabled: true
Nonlinearity correction enabled: false
Boxcar width: 0
XAxis mode: Wavelengths
Number of Pixels in Spectrum: 2048
>>>>>Begin Spectral Data<<<<<
407.81	-150.56
407.921	-150.56
408.032	-150.56
408.143	-124.56
408.254	-84.56
408.365	22.44
408.476	214.44
408.587	18.44
408.699	-33.56
408.81	-18.56
408.921	-17.56
409.032	-39.56
409.143	24.44
409.254	34.44
409.365	89.44
409.476	-60.56
409.587	32.44
409.698	93.44
409.809	92.44
409.92	-17.56
410.031	21.44
410.142	44.44
410.253	3.44
410.364	54.44
410.475	1377.44
410.585	6692.44
410.696	7196.44
410.807	7013.44
410.918	7050.44
411.029	7126.44
411.14	7103.44
411.251	7073.44
411.362	7119.44
411.472	7287.44
411.583	7070.44
411.694	7332.44
411.805	7246.44
411.916	7500.44
412.026	7195.44
412.137	7424.44
412.248	7246.44
412.359	7236.44
412.47	7173.44
412.58	7052.44
412.691	7160.44
412.802	7012.44
412.912	7184.44
413.023	7067.44
413.134	7117.44
413.245	7057.44
413.355	7123.44
413.466	7212.44
413.577	7044.44
413.687	7228.44
413.798	7005.44
413.909	7168.44
414.019	7150.44
414.13	7160.44
414.24	7040.44
414.351	7338.44
414.462	7416.44
414.572	7262.44
414.683	7356.44
414.793	7266.44
414.904	7404.44
415.014	7133.44
415.125	7193.44
415.235	7220.44
415.346	7286.44
415.456	7295.44
415.567	7071.44
415.677	7180.44
415.788	7276.44
415.898	7113.44
416.009	7052.44
416.119	7209.44
416.23	6965.44
416.34	6988.44
416.45	7114.44
416.561	7941.44
416.671	7164.44
416.782	7166.44
416.892	7240.44
417.002	7217.44
417.113	7443.44
417.223	7215.44
417.333	7345.44
417.444	7345.44
417.554	7461.44
417.664	7549.44
417.775	7308.44
417.885	7647.44
417.995	7510.44
418.106	7950.44
418.216	7644.44
418.326	7983.44
418.436	8047.44
418.547	8070.44
418.657	7997.44
418.767	8143.44
418.877	8040.44
418.987	8292.44
419.098	8083.44
419.208	8275.44
419.318	8240.44
419.428	8277.44
419.538	8084.44
419.648	8243.44
419.759	8161.44
419.869	8191.44
419.979	8184.44
420.089	8195.44
420.199	8155.44
420.309	8351.44
420.419	8346.44
420.529	8382.44
420.639	8475.44
420.749	8344.44
420.859	8401.44
420.969	8501.44
421.079	8779.44
421.189	8443.44
421.299	8355.44
421.409	8464.44
421.519	8576.44
421.629	8560.44
421.739	8520.44
421.849	8687.44
421.959	8627.44
422.069	8749.44
422.179	8780.44
422.289	8950.44
422.399	8996.44
422.509	8963.44
422.619	12048.44
422.729	9477.44
422.838	9125.44
422.948	9448.44
423.058	9449.44
423.168	9425.44
423.278	9466.44
423.388	9623.44
423.498	9922.44
423.607	9942.44
423.717	10112.44
423.827	10106.44
423.937	9940.44
424.046	9955.44
424.156	10262.44
424.266	9902.44
424.376	10349.44
424.485	10319.44
424.595	10337.44
424.705	10472.44
424.815	10232.44
424.924	10796.44
425.034	10435.44
425.144	10302.44
425.253	10468.44
425.363	10742.44
425.473	10653.44
425.582	10434.44
425.692	10759.44
425.801	10533.44
425.911	10975.44
426.021	10827.44
426.13	11079.44
426.24	11041.44
426.349	11112.44
426.459	10970.44
426.568	11057.44
426.678	11328.44
426.787	11175.44
426.897	11136.44
427.006	11220.44
427.116	11347.44
427.225	11516.44
427.335	11613.44
427.444	11495.44
427.554	11438.44
427.663	11573.44
427.773	11496.44
427.882	11897.44
427.992	11797.44
428.101	11823.44
428.21	11785.44
428.32	12117.44
428.429	11851.44
428.539	12463.44
428.648	12107.44
428.757	12002.44
428.867	12231.44
428.976	12396.44
429.085	12447.44
429.195	12380.44
429.304	12401.44
429.413	12397.44
429.523	12616.44
429.632	12667.44
429.741	12541.44
429.85	12554.44
429.96	12751.44
430.069	12626.44
430.178	12882.44
430.287	13180.44
430.397	13092.44
430.506	12957.44
430.615	13174.44
430.724	13276.44
430.833	13197.44
430.943	13162.44
431.052	13329.44
431.161	13429.44
431.27	13604.44
431.379	13625.44
431.488	14186.44
431.597	13924.44
431.706	14040.44
431.816	14134.44
431.925	13978.44
432.034	13992.44
432.143	14035.44
432.252	13795.44
432.361	13970.44
432.47	13922.44
432.579	13828.44
432.688	13808.44
432.797	13850.44
432.906	13707.44
433.015	13896.44
433.124	14016.44
433.233	14131.44
433.342	13956.44
433.451	14076.44
433.56	14130.44
433.669	14096.44
433.778	14142.44
433.886	14325.44
433.995	14237.44
434.104	14537.44
434.213	14537.44
434.322	14537.44
434.431	14537.44
434.54	14537.44
434.649	14537.44
434.757	14537.44
434.866	14537.44
434.975	14537.44
435.084	14537.44
435.193	14537.44
435.301	14537.44
435.41	14463.44
435.519	14487.44
435.628	13810.44
435.737	13597.44
435.845	13588.44
435.954	13399.44
436.063	13254.44
436.171	13479.44
436.28	13328.44
436.389	13639.44
436.498	13163.44
436.606	13297.44
436.715	13430.44
436.823	12984.44
436.932	12939.44
437.041	12878.44
437.149	12813.44
437.258	12537.44
437.367	12305.44
437.475	12505.44
437.584	12695.44
437.692	12180.44
437.801	13742.44
437.91	12385.44
438.018	12213.44
438.127	12257.44
438.235	12256.44
438.344	12346.44
438.452	12090.44
438.561	11975.44
438.669	11941.44
438.778	11853.44
438.886	12023.44
438.995	12031.44
439.103	12079.44
439.212	12087.44
439.32	12267.44
439.428	12002.44
439.537	12177.44
439.645	12324.44
439.754	12360.44
439.862	12055.44
439.97	12226.44
440.079	12239.44
440.187	12087.44
440.295	12517.44
440.404	12407.44
440.512	12439.44
440.62	12611.44
440.729	12651.44
440.837	12836.44
440.945	13590.44
441.054	12929.44
441.162	13272.44
441.27	13374.44
441.378	13627.44
441.487	13593.44
441.595	13981.44
441.703	13639.44
441.811	13447.44
441.92	13345.44
442.028	12944.44
442.136	13127.44
442.244	13078.44
442.352	13145.44
442.461	12788.44
442.569	12823.44
442.677	12989.44
442.785	13078.44
442.893	12712.44
443.001	12966.44
443.109	12896.44
443.217	13023.44
443.325	12957.44
443.434	13671.44
443.542	13428.44
443.65	13271.44
443.758	13511.44
443.866	13547.44
443.974	13791.44
444.082	13948.44
444.19	14367.44
444.298	14446.44
444.406	14537.44
444.514	14537.44
444.622	14537.44
444.73	14537.44
444.838	14537.44
444.946	14537.44
445.054	14153.44
445.161	14311.44
445.269	13788.44
445.377	13714.44
445.485	13857.44
445.593	13377.44
445.701	13475.44
445.809	13395.44
445.917	13388.44
446.025	13296.44
446.132	13381.44
446.24	13393.44
446.348	13296.44
446.456	13103.44
446.564	13241.44
446.671	13005.44
446.779	12938.44
446.887	13130.44
446.995	12943.44
447.102	12931.44
447.21	12963.44
447.318	13004.44
447.426	12903.44
447.533	13210.44
447.641	14038.44
447.749	12777.44
447.856	12803.44
447.964	13120.44
448.072	12886.44
448.179	12899.44
448.287	12997.44
448.395	12996.44
448.502	12880.44
448.61	12990.44
448.718	12983.44
448.825	13024.44
448.933	13100.44
449.04	13099.44
449.148	13061.44
449.256	13266.44
449.363	13307.44
449.471	13421.44
449.578	13617.44
449.686	13505.44
449.793	13755.44
449.901	13698.44
450.008	13920.44
450.116	13873.44
450.223	14009.44
450.331	14135.44
450.438	14326.44
450.546	14378.44
450.653	14423.44
450.76	14537.44
450.868	14537.44
450.975	14537.44
451.083	14537.44
451.19	14537.44
451.297	14537.44
451.405	14537.44
451.512	14537.44
451.619	14537.44
451.727	14537.44
451.834	14537.44
451.941	14537.44
452.049	14537.44
452.156	14537.44
452.263	14537.44
452.371	14537.44
452.478	14537.44
452.585	14537.44
452.692	14537.44
452.8	14537.44
452.907	14537.44
453.014	14537.44
453.121	14537.44
453.229	14537.44
453.336	14537.44
453.443	14537.44
453.55	14537.44
453.657	14537.44
453.765	14537.44
453.872	14537.44
453.979	14537.44
454.086	14537.44
454.193	14537.44
454.3	14537.44
454.407	14537.44
454.514	14537.44
454.621	14537.44
454.729	14537.44
454.836	14537.44
454.943	14537.44
455.05	14537.44
455.157	14537.44
455.264	14537.44
455.371	14537.44
455.478	14537.44
455.585	14537.44
455.692	14537.44
455.799	14537.44
455.906	14537.44
456.013	14537.44
456.12	14537.44
456.227	14537.44
456.334	14537.44
456.44	14537.44
456.547	14537.44
456.654	14537.44
456.761	14537.44
456.868	14537.44
456.975	14537.44
457.082	14537.44
457.189	14537.44
457.296	14537.44
457.402	14537.44
457.509	14537.44
457.616	14537.44
457.723	14537.44
457.83	14537.44
457.936	14537.44
458.043	14537.44
458.15	14537.44
458.257	14537.44
458.363	14537.44
458.47	14537.44
458.577	14537.44
458.684	14537.44
458.79	14537.44
458.897	14537.44
459.004	14537.44
459.11	14537.44
459.217	14537.44
459.324	14537.44
459.43	14537.44
459.537	14537.44
459.644	14537.44
459.75	14537.44
459.857	14537.44
459.964	14537.44
460.07	14537.44
460.177	14537.44
460.283	14537.44
460.39	14537.44
460.496	14537.44
460.603	14537.44
460.71	14537.44
460.816	14537.44
460.923	14537.44
461.029	14537.44
461.136	14537.44
461.242	14537.44
461.349	14537.44
461.455	14537.44
461.562	14537.44
461.668	14537.44
461.774	14537.44
461.881	14537.44
461.987	14537.44
462.094	14537.44
462.2	14537.44
462.307	14537.44
462.413	14537.44
462.519	14537.44
462.626	14537.44
462.732	14537.44
462.838	14537.44
462.945	14537.44
463.051	14537.44
463.157	14537.44
463.264	14537.44
463.37	14537.44
463.476	14537.44
463.583	14537.44
463.689	14537.44
463.795	14537.44
463.901	14537.44
464.008	14537.44
464.114	14537.44
464.22	14537.44
464.326	14537.44
464.433	14537.44
464.539	14537.44
464.645	14537.44
464.751	14537.44
464.857	14537.44
464.963	14537.44
465.07	14537.44
465.176	14537.44
465.282	14537.44
465.388	14537.44
465.494	14537.44
465.6	14537.44
465.706	14537.44
465.812	14537.44
465.918	14537.44
466.024	14537.44
466.131	14537.44
466.237	14537.44
466.343	14537.44
466.449	14537.44
466.555	14537.44
466.661	14537.44
466.767	14537.44
466.873	14537.44
466.979	14537.44
467.085	14537.44
467.191	14537.44
467.296	14537.44
467.402	14537.44
467.508	14537.44
467.614	14537.44
467.72	14537.44
467.826	14537.44
467.932	14537.44
468.038	14537.44
468.144	14537.44
468.25	14537.44
468.355	14537.44
468.461	14537.44
468.567	14537.44
468.673	14537.44
468.779	14537.44
468.885	14537.44
468.99	14537.44
469.096	14537.44
469.202	14537.44
469.308	14537.44
469.413	14537.44
469.519	14537.44
469.625	14537.44
469.731	14537.44
469.836	14537.44
469.942	14537.44
470.048	14537.44
470.153	14537.44
470.259	14537.44
470.365	14537.44
470.47	14537.44
470.576	14537.44
470.682	14537.44
470.787	14537.44
470.893	14537.44
470.999	14537.44
471.104	14537.44
471.21	14537.44
471.315	14537.44
471.421	14534.44
471.527	14537.44
471.632	14428.44
471.738	14245.44
471.843	14059.44
471.949	14081.44
472.054	14041.44
472.16	13809.44
472.265	13658.44
472.371	13699.44
472.476	13679.44
472.582	13660.44
472.687	13403.44
472.793	13275.44
472.898	13255.44
473.003	13217.44
473.109	13234.44
473.214	13165.44
473.32	13145.44
473.425	13086.44
473.53	13154.44
473.636	12901.44
473.741	12790.44
473.847	12982.44
473.952	13090.44
474.057	12856.44
474.163	13131.44
474.268	13071.44
474.373	12971.44
474.478	12812.44
474.584	12800.44
474.689	12889.44
474.794	12982.44
474.9	13255.44
475.005	12869.44
475.11	13064.44
475.215	12922.44
475.321	12968.44
475.426	13148.44
475.531	13072.44
475.636	13059.44
475.741	12972.44
475.846	13342.44
475.952	13398.44
476.057	13208.44
476.162	13375.44
476.267	13308.44
476.372	13515.44
476.477	13047.44
476.582	13408.44
476.687	13324.44
476.793	13425.44
476.898	13622.44
477.003	13627.44
477.108	13731.44
477.213	13849.44
477.318	13776.44
477.423	14136.44
477.528	14200.44
477.633	14421.44
477.738	14383.44
477.843	14438.44
477.948	14533.44
478.053	14537.44
478.158	14537.44
478.263	14537.44
478.368	14537.44
478.473	14537.44
478.578	14537.44
478.682	14537.44
478.787	14537.44
478.892	14537.44
478.997	14537.44
479.102	14537.44
479.207	14537.44
479.312	14537.44
479.417	14537.44
479.521	14537.44
479.626	14537.44
479.731	14537.44
479.836	14537.44
479.941	14537.44
480.045	14537.44
480.15	14537.44
480.255	14537.44
480.36	14537.44
480.465	14537.44
480.569	14537.44
480.674	14537.44
480.779	14537.44
480.883	14537.44
480.988	14537.44
481.093	14537.44
481.197	14537.44
481.302	14537.44
481.407	14537.44
481.511	14537.44
481.616	14537.44
481.721	14537.44
481.825	14537.44
481.93	14537.44
482.035	14537.44
482.139	14537.44
482.244	14537.44
482.348	14537.44
482.453	14537.44
482.557	14537.44
482.662	14537.44
482.767	14537.44
482.871	14537.44
482.976	14537.44
483.08	14537.44
483.185	14537.44
483.289	14537.44
483.394	14537.44
483.498	14537.44
483.603	14537.44
483.707	14537.44
483.811	14537.44
483.916	14537.44
484.02	14537.44
484.125	14537.44
484.229	14537.44
484.333	14537.44
484.438	14537.44
484.542	14537.44
484.647	14537.44
484.751	14537.44
484.855	14537.44
484.96	14537.44
485.064	14537.44
485.168	14537.44
485.273	14537.44
485.377	14537.44
485.481	14537.44
485.585	14537.44
485.69	14537.44
485.794	14537.44
485.898	14537.44
486.002	14537.44
486.107	14537.44
486.211	14537.44
486.315	14537.44
486.419	14537.44
486.524	14537.44
486.628	14537.44
486.732	14537.44
486.836	14537.44
486.94	14537.44
487.044	14537.44
487.148	14537.44
487.253	14537.44
487.357	14537.44
487.461	14537.44
487.565	14537.44
487.669	14537.44
487.773	14537.44
487.877	14537.44
487.981	14537.44
488.085	14537.44
488.189	14537.44
488.293	14537.44
488.397	14537.44
488.501	14537.44
488.605	14537.44
488.709	14537.44
488.813	14537.44
488.917	14537.44
489.021	14537.44
489.125	14537.44
489.229	14537.44
489.333	14537.44
489.437	14537.44
489.541	14537.44
489.645	14537.44
489.749	14537.44
489.853	14537.44
489.956	14537.44
490.06	14537.44
490.164	14537.44
490.268	14537.44
490.372	14537.44
490.476	14537.44
490.579	14537.44
490.683	14537.44
490.787	14537.44
490.891	14537.44
490.995	14537.44
491.098	14537.44
491.202	14537.44
491.306	14537.44
491.41	14537.44
491.513	14537.44
491.617	14537.44
491.721	14537.44
491.824	14537.44
491.928	14537.44
492.032	14537.44
492.136	14537.44
492.239	14537.44
492.343	14537.44
492.446	14537.44
492.55	14537.44
492.654	14537.44
492.757	14537.44
492.861	14537.44
492.965	14537.44
493.068	14537.44
493.172	14537.44
493.275	14537.44
493.379	14537.44
493.482	14537.44
493.586	14537.44
493.689	14537.44
493.793	14537.44
493.896	14537.44
494	14537.44
494.103	14537.44
494.207	14537.44
494.31	14537.44
494.414	14537.44
494.517	14537.44
494.621	14537.44
494.724	14537.44
494.828	14537.44
494.931	14537.44
495.034	14537.44
495.138	14537.44
495.241	14537.44
495.345	14537.44
495.448	14537.44
495.551	14537.44
495.655	14537.44
495.758	14537.44
495.861	14537.44
495.965	14537.44
496.068	14537.44
496.171	14537.44
496.274	14537.44
496.378	14537.44
496.481	14537.44
496.584	14537.44
496.687	14537.44
496.791	14537.44
496.894	14537.44
496.997	14537.44
497.1	14537.44
497.204	14537.44
497.307	14537.44
497.41	14537.44
497.513	14537.44
497.616	14537.44
497.719	14537.44
497.823	14537.44
497.926	14537.44
498.029	14537.44
498.132	14537.44
498.235	14537.44
498.338	14537.44
498.441	14537.44
498.544	14537.44
498.647	14537.44
498.75	14537.44
498.853	14537.44
498.956	14537.44
499.059	14537.44
499.163	14537.44
499.266	14537.44
499.369	14537.44
499.471	14537.44
499.574	14537.44
499.677	14537.44
499.78	14537.44
499.883	14537.44
499.986	14537.44
500.089	14537.44
500.192	14537.44
500.295	14537.44
500.398	14537.44
500.501	14537.44
500.604	14537.44
500.707	14537.44
500.809	14537.44
500.912	14537.44
501.015	14537.44
501.118	14537.44
501.221	14537.44
501.324	14537.44
501.426	14537.44
501.529	14537.44
501.632	14537.44
501.735	14537.44
501.837	14537.44
501.94	14537.44
502.043	14537.44
502.146	14537.44
502.248	14537.44
502.351	14537.44
502.454	14537.44
502.557	14537.44
502.659	14537.44
502.762	14537.44
502.865	14537.44
502.967	14537.44
503.07	14537.44
503.173	14537.44
503.275	14537.44
503.378	14537.44
503.48	14537.44
503.583	14537.44
503.686	14537.44
503.788	14537.44
503.891	14537.44
503.993	14537.44
504.096	14537.44
504.198	14537.44
504.301	14537.44
504.403	14537.44
504.506	14537.44
504.608	14537.44
504.711	14537.44
504.813	14537.44
504.916	14537.44
505.018	14537.44
505.121	14537.44
505.223	14537.44
505.326	14537.44
505.428	14537.44
505.531	14537.44
505.633	14537.44
505.735	14537.44
505.838	14537.44
505.94	14537.44
506.042	14383.44
506.145	14364.44
506.247	14244.44
506.35	14098.44
506.452	13943.44
506.554	14129.44
506.656	13759.44
506.759	13908.44
506.861	13858.44
506.963	13611.44
507.066	13775.44
507.168	13777.44
507.27	13477.44
507.372	13586.44
507.475	13513.44
507.577	13340.44
507.679	13282.44
507.781	12981.44
507.883	13264.44
507.986	13233.44
508.088	13195.44
508.19	13236.44
508.292	12787.44
508.394	12926.44
508.496	12980.44
508.598	12738.44
508.701	12957.44
508.803	12862.44
508.905	12642.44
509.007	12732.44
509.109	12742.44
509.211	12794.44
509.313	12664.44
509.415	12723.44
509.517	12616.44
509.619	12411.44
509.721	12491.44
509.823	12533.44
509.925	12678.44
510.027	12479.44
510.129	12479.44
510.231	12498.44
510.333	12271.44
510.435	12455.44
510.537	12442.44
510.639	12473.44
510.741	12438.44
510.843	12519.44
510.945	12382.44
511.047	12395.44
511.148	12535.44
511.25	12387.44
511.352	12413.44
511.454	12322.44
511.556	12503.44
511.658	12509.44
511.76	12508.44
511.861	12799.44
511.963	12261.44
512.065	12398.44
512.167	12336.44
512.268	12646.44
512.37	12536.44
512.472	12637.44
512.574	12535.44
512.676	12652.44
512.777	12510.44
512.879	12562.44
512.981	12477.44
513.082	12510.44
513.184	12525.44
513.286	13042.44
513.387	12707.44
513.489	12779.44
513.591	12768.44
513.692	12743.44
513.794	12932.44
513.896	12658.44
513.997	12667.44
514.099	12830.44
514.2	13021.44
514.302	13015.44
514.404	13010.44
514.505	13039.44
514.607	13215.44
514.708	13009.44
514.81	13311.44
514.911	13282.44
515.013	13552.44
515.114	13482.44
515.216	13373.44
515.317	13712.44
515.419	13740.44
515.52	13984.44
515.622	13921.44
515.723	13911.44
515.825	14385.44
515.926	14186.44
516.027	14251.44
516.129	14537.44
516.23	14537.44
516.332	14537.44
516.433	14537.44
516.534	14537.44
516.636	14537.44
516.737	14537.44
516.838	14537.44
516.94	14537.44
517.041	14537.44
517.142	14537.44
517.244	14537.44
517.345	14537.44
517.446	14537.44
517.547	14537.44
517.649	14537.44
517.75	14537.44
517.851	14537.44
517.952	14537.44
518.054	14537.44
518.155	14537.44
518.256	14537.44
518.357	14537.44
518.458	14537.44
518.56	14537.44
518.661	14537.44
518.762	14537.44
518.863	14537.44
518.964	14537.44
519.065	14537.44
519.166	14537.44
519.268	14537.44
519.369	14537.44
519.47	14537.44
519.571	14537.44
519.672	14537.44
519.773	14537.44
519.874	14537.44
519.975	14537.44
520.076	14537.44
520.177	14537.44
520.278	14537.44
520.379	14422.44
520.48	14247.44
520.581	14190.44
520.682	14247.44
520.783	14340.44
520.884	14265.44
520.985	14229.44
521.086	14260.44
521.187	14060.44
521.288	14012.44
521.389	14294.44
521.489	13933.44
521.59	13943.44
521.691	14115.44
521.792	14191.44
521.893	14124.44
521.994	14061.44
522.095	13945.44
522.195	13949.44
522.296	14122.44
522.397	13988.44
522.498	13807.44
522.599	13932.44
522.699	13905.44
522.8	13855.44
522.901	13912.44
523.002	13978.44
523.102	14148.44
523.203	13765.44
523.304	14190.44
523.405	14031.44
523.505	13945.44
523.606	14043.44
523.707	13993.44
523.807	13875.44
523.908	13880.44
524.009	14059.44
524.109	13809.44
524.21	13909.44
524.31	14046.44
524.411	14186.44
524.512	13995.44
524.612	14051.44
524.713	14076.44
524.813	13878.44
524.914	14181.44
525.014	14537.44
525.115	14306.44
525.216	13918.44
525.316	14023.44
525.417	13904.44
525.517	13923.44
525.618	14014.44
525.718	13856.44
525.819	13755.44
525.919	14016.44
526.019	13904.44
526.12	13924.44
526.22	14013.44
526.321	13925.44
526.421	13987.44
526.522	13919.44
526.622	13794.44
526.722	13822.44
526.823	13857.44
526.923	13893.44
527.023	13776.44
527.124	13965.44
527.224	14078.44
527.324	13798.44
527.425	13728.44
527.525	13691.44
527.625	13762.44
527.726	13843.44
527.826	13803.44
527.926	13798.44
528.026	13827.44
528.127	13939.44
528.227	13807.44
528.327	13764.44
528.427	13808.44
528.528	13837.44
528.628	13764.44
528.728	13629.44
528.828	13760.44
528.928	13847.44
529.029	13757.44
529.129	13755.44
529.229	13688.44
529.329	13511.44
529.429	13629.44
529.529	13701.44
529.629	13686.44
529.729	13634.44
529.829	13816.44
529.93	13499.44
530.03	13624.44
530.13	13553.44
530.23	13536.44
530.33	13363.44
530.43	13446.44
530.53	13508.44
530.63	13347.44
530.73	13264.44
530.83	13281.44
530.93	13282.44
531.03	13358.44
531.13	13532.44
531.23	13253.44
531.33	13351.44
531.429	13436.44
531.529	13133.44
531.629	13297.44
531.729	13243.44
531.829	13184.44
531.929	13143.44
532.029	12951.44
532.129	13102.44
532.229	13234.44
532.328	13037.44
532.428	12996.44
532.528	12845.44
532.628	12744.44
532.728	12934.44
532.827	12725.44
532.927	12765.44
533.027	12709.44
533.127	12755.44
533.227	12706.44
533.326	12594.44
533.426	12622.44
533.526	12575.44
533.625	12607.44
533.725	12749.44
533.825	12472.44
533.924	12443.44
534.024	12261.44
534.124	12344.44
534.223	12228.44
534.323	12592.44
534.423	12174.44
534.522	12248.44
534.622	12081.44
534.722	12024.44
534.821	12033.44
534.921	11951.44
535.02	11834.44
535.12	11854.44
535.219	11947.44
535.319	11940.44
535.419	11696.44
535.518	11667.44
535.618	11803.44
535.717	11678.44
535.817	11382.44
535.916	11312.44
536.016	11455.44
536.115	11298.44
536.215	11152.44
536.314	11191.44
536.413	11095.44
536.513	11100.44
536.612	11151.44
536.712	10982.44
536.811	10946.44
536.91	10851.44
537.01	10943.44
537.109	10923.44
537.209	10860.44
537.308	10830.44
537.407	10708.44
537.507	10725.44
537.606	10678.44
537.705	10719.44
537.805	10681.44
537.904	10727.44
538.003	10585.44
538.102	10678.44
538.202	10680.44
538.301	10555.44
538.4	10490.44
538.499	10432.44
538.599	10440.44
538.698	10600.44
538.797	10310.44
538.896	10459.44
538.995	10352.44
539.095	10175.44
539.194	10624.44
539.293	10150.44
539.392	10076.44
539.491	10140.44
539.59	10087.44
539.689	10100.44
539.789	10000.44
539.888	9923.44
539.987	9807.44
540.086	9906.44
540.185	9823.44
540.284	9952.44
540.383	9878.44
540.482	9874.44
540.581	9745.44
540.68	9774.44
540.779	9927.44
540.878	9878.44
540.977	9813.44
541.076	9781.44
541.175	9809.44
541.274	9899.44
541.373	9648.44
541.472	9656.44
541.571	9461.44
541.67	10830.44
541.769	9652.44
541.868	9483.44
541.966	9665.44
542.065	9574.44
542.164	9345.44
542.263	9406.44
542.362	9438.44
542.461	9414.44
542.56	9427.44
542.658	9484.44
542.757	9381.44
542.856	9161.44
542.955	9153.44
543.054	9229.44
543.152	9439.44
543.251	9253.44
543.35	9462.44
543.449	9285.44
543.547	9167.44
543.646	9151.44
543.745	9310.44
543.843	9286.44
543.942	9188.44
544.041	9174.44
544.14	9197.44
544.238	9169.44
544.337	9348.44
544.436	9384.44
544.534	9417.44
544.633	9397.44
544.731	9404.44
544.83	9320.44
544.929	9299.44
545.027	9311.44
545.126	9170.44
545.224	9272.44
545.323	9378.44
545.421	9310.44
545.52	9221.44
545.619	9277.44
545.717	9208.44
545.816	9285.44
545.914	9382.44
546.013	9432.44
546.111	9608.44
546.209	9195.44
546.308	9086.44
546.406	9223.44
546.505	9243.44
546.603	9150.44
546.702	9092.44
546.8	9124.44
546.899	9089.44
546.997	9177.44
547.095	9116.44
547.194	9293.44
547.292	9151.44
547.39	9317.44
547.489	9176.44
547.587	9538.44
547.685	9154.44
547.784	9455.44
547.882	9257.44
547.98	9197.44
548.079	9266.44
548.177	9078.44
548.275	9019.44
548.373	9327.44
548.472	9128.44
548.57	9054.44
548.668	9228.44
548.766	9136.44
548.864	9131.44
548.963	9349.44
549.061	9351.44
549.159	9196.44
549.257	9326.44
549.355	9197.44
549.454	9340.44
549.552	9284.44
549.65	9357.44
549.748	9300.44
549.846	9201.44
549.944	9121.44
550.042	9119.44
550.14	9169.44
550.238	9130.44
550.336	9089.44
550.434	9000.44
550.532	9000.44
550.631	9123.44
550.729	8981.44
550.827	9005.44
550.925	8912.44
551.023	9081.44
551.121	8873.44
551.218	9038.44
551.316	9005.44
551.414	8998.44
551.512	8972.44
551.61	9163.44
551.708	9265.44
551.806	9169.44
551.904	9095.44
552.002	9358.44
552.1	9278.44
552.198	9325.44
552.296	9664.44
552.393	9657.44
552.491	9837.44
552.589	9853.44
552.687	9760.44
552.785	9812.44
552.882	9991.44
552.98	10161.44
553.078	10042.44
553.176	10124.44
553.274	10114.44
553.371	9946.44
553.469	9894.44
553.567	9882.44
553.665	9691.44
553.762	10075.44
553.86	9834.44
553.958	9592.44
554.055	9519.44
554.153	9603.44
554.251	9424.44
554.348	9282.44
554.446	9179.44
554.544	9186.44
554.641	9359.44
554.739	9049.44
554.837	9108.44
554.934	8958.44
555.032	8913.44
555.129	8979.44
555.227	9253.44
555.324	11561.44
555.422	9018.44
555.519	8702.44
555.617	8612.44
555.715	8547.44
555.812	8911.44
555.91	8462.44
556.007	8572.44
556.105	8565.44
556.202	8605.44
556.299	8364.44
556.397	8562.44
556.494	8322.44
556.592	8450.44
556.689	8424.44
556.787	8261.44
556.884	8237.44
556.981	8367.44
557.079	8347.44
557.176	8381.44
557.273	8472.44
557.371	8564.44
557.468	8401.44
557.566	8438.44
557.663	8387.44
557.76	8485.44
557.857	8303.44
557.955	8273.44
558.052	8320.44
558.149	8359.44
558.247	8423.44
558.344	8275.44
558.441	8214.44
558.538	8143.44
558.636	8325.44
558.733	8308.44
558.83	8279.44
558.927	8360.44
559.024	8202.44
559.122	8213.44
559.219	8357.44
559.316	8409.44
559.413	8545.44
559.51	8264.44
559.607	8382.44
559.704	8305.44
559.801	8423.44
559.899	8283.44
559.996	8463.44
560.093	8407.44
560.19	8402.44
560.287	8384.44
560.384	8601.44
560.481	8509.44
560.578	8461.44
560.675	8362.44
560.772	8486.44
560.869	8443.44
560.966	8617.44
561.063	8423.44
561.16	8500.44
561.257	8506.44
561.354	8609.44
561.451	8591.44
561.548	8523.44
561.645	8545.44
561.742	8617.44
561.838	8606.44
561.935	8528.44
562.032	8616.44
562.129	8508.44
562.226	8607.44
562.323	8518.44
562.42	8706.44
562.516	8745.44
562.613	8653.44
562.71	8755.44
562.807	9451.44
562.904	8763.44
563	8862.44
563.097	8735.44
563.194	8796.44
563.291	8827.44
563.387	8969.44
563.484	8859.44
563.581	8964.44
563.678	8969.44
563.774	9412.44
563.871	9093.44
563.968	9158.44
564.064	9141.44
564.161	9061.44
564.258	9424.44
564.354	9543.44
564.451	9561.44
564.548	9608.44
564.644	9623.44
564.741	9665.44
564.837	9798.44
564.934	9860.44
565.031	9883.44
565.127	10111.44
565.224	10288.44
565.32	10429.44
565.417	10392.44
565.513	10686.44
565.61	10777.44
565.706	11136.44
565.803	11336.44
565.899	11586.44
565.996	11889.44
566.092	12032.44
566.189	12401.44
566.285	12585.44
566.382	12877.44
566.478	13523.44
566.574	13688.44
566.671	13816.44
566.767	13774.44
566.864	13843.44
566.96	13997.44
567.056	14005.44
567.153	14330.44
567.249	14496.44
567.345	14537.44
567.442	14537.44
567.538	14537.44
567.634	14537.44
567.731	14537.44
567.827	14537.44
567.923	14537.44
568.019	14537.44
568.116	14415.44
568.212	13858.44
568.308	13476.44
568.404	13141.44
568.501	12654.44
568.597	12340.44
568.693	11865.44
568.789	12335.44
568.885	11264.44
568.982	11192.44
569.078	10812.44
569.174	10702.44
569.27	10376.44
569.366	10264.44
569.462	10263.44
569.558	10133.44
569.655	9843.44
569.751	9715.44
569.847	9570.44
569.943	9508.44
570.039	9453.44
570.135	9931.44
570.231	9417.44
570.327	9578.44
570.423	9390.44
570.519	9347.44
570.615	9229.44
570.711	9364.44
570.807	9345.44
570.903	9160.44
570.999	9073.44
571.095	9128.44
571.191	9050.44
571.287	8859.44
571.383	8956.44
571.479	8700.44
571.574	8593.44
571.67	8404.44
571.766	8618.44
571.862	8245.44
571.958	8253.44
572.054	8322.44
572.15	8157.44
572.246	7888.44
572.341	8008.44
572.437	7955.44
572.533	7891.44
572.629	7906.44
572.725	7867.44
572.82	7708.44
572.916	7761.44
573.012	7686.44
573.108	7676.44
573.203	7551.44
573.299	7586.44
573.395	7456.44
573.49	7392.44
573.586	7441.44
573.682	7494.44
573.778	7506.44
573.873	7289.44
573.969	7344.44
574.065	7180.44
574.16	7241.44
574.256	7280.44
574.351	7285.44
574.447	7233.44
574.543	7195.44
574.638	7221.44
574.734	7222.44
574.829	7274.44
574.925	7126.44
575.02	6933.44
575.116	6929.44
575.212	6991.44
575.307	7024.44
575.403	6772.44
575.498	6882.44
575.594	6766.44
575.689	6845.44
575.784	6822.44
575.88	6682.44
575.975	6692.44
576.071	6673.44
576.166	6510.44
576.262	6545.44
576.357	6636.44
576.452	6742.44
576.548	6499.44
576.643	6488.44
576.739	6481.44
576.834	6404.44
576.929	6393.44
577.025	7189.44
577.12	6300.44
577.215	6178.44
577.311	6386.44
577.406	6296.44
577.501	6295.44
577.597	6197.44
577.692	6269.44
577.787	6078.44
577.882	6075.44
577.978	6145.44
578.073	6021.44
578.168	5920.44
578.263	6019.44
578.358	5957.44
578.454	5761.44
578.549	5887.44
578.644	5790.44
578.739	5957.44
578.834	5880.44
578.929	5752.44
579.025	5711.44
579.12	6019.44
579.215	6086.44
579.31	5846.44
579.405	5619.44
579.5	5788.44
579.595	5629.44
579.69	5562.44
579.785	5691.44
579.88	5586.44
579.975	5591.44
580.07	5570.44
580.165	5552.44
580.26	5553.44
580.355	5421.44
580.45	5389.44
580.545	5274.44
580.64	5371.44
580.735	5460.44
580.83	5391.44
580.925	5222.44
581.02	5294.44
581.115	5265.44
581.21	5200.44
581.305	5339.44
581.4	5180.44
581.495	5253.44
581.589	5171.44
581.684	5173.44
581.779	5225.44
581.874	5174.44
581.969	5184.44
582.064	5007.44
582.158	4987.44
582.253	5074.44
582.348	5008.44
582.443	4989.44
582.537	4983.44
582.632	5094.44
582.727	4998.44
582.822	4894.44
582.916	4912.44
583.011	4858.44
583.106	5006.44
583.201	4934.44
583.295	4840.44
583.39	4790.44
583.485	4793.44
583.579	6710.44
583.674	4873.44
583.769	4994.44
583.863	4784.44
583.958	4701.44
584.052	4661.44
584.147	4670.44
584.242	4604.44
584.336	4706.44
584.431	4897.44
584.525	4686.44
584.62	4814.44
584.714	4708.44
584.809	4635.44
584.903	4589.44
584.998	4740.44
585.092	4577.44
585.187	4488.44
585.281	4559.44
585.376	4507.44
585.47	4560.44
585.565	4506.44
585.659	4496.44
585.754	4488.44
585.848	4509.44
585.942	4390.44
586.037	4354.44
586.131	6674.44
586.226	4544.44
586.32	4456.44
586.414	4399.44
586.509	4548.44
586.603	4422.44
586.697	4319.44
586.792	4377.44
586.886	4280.44
586.98	4370.44
587.075	4238.44
587.169	4309.44
587.263	4412.44
587.357	4356.44
587.452	4222.44
587.546	4387.44
587.64	4168.44
587.734	4287.44
587.829	4238.44
587.923	4188.44
588.017	4210.44
588.111	4252.44
588.205	4256.44
588.3	4144.44
588.394	4274.44
588.488	4122.44
588.582	4291.44
588.676	4526.44
588.77	5196.44
588.864	7181.44
588.958	7214.44
589.052	6240.44
589.147	5322.44
589.241	4703.44
589.335	4621.44
589.429	5783.44
589.523	6153.44
589.617	5909.44
589.711	4983.44
589.805	4532.44
589.899	4409.44
589.993	4144.44
590.087	4135.44
590.181	4110.44
590.275	4171.44
590.369	4065.44
590.462	4096.44
590.556	4100.44
590.65	4016.44
590.744	4118.44
590.838	4155.44
590.932	4121.44
591.026	4218.44
591.12	4347.44
591.214	4109.44
591.307	4146.44
591.401	4111.44
591.495	4163.44
591.589	4226.44
591.683	4238.44
591.777	4216.44
591.87	4572.44
591.964	4341.44
592.058	4358.44
592.152	4358.44
592.245	4352.44
592.339	4487.44
592.433	4495.44
592.527	4503.44
592.62	4563.44
592.714	4672.44
592.808	4705.44
592.901	4796.44
592.995	4609.44
593.089	4880.44
593.182	4729.44
593.276	4667.44
593.37	4652.44
593.463	4673.44
593.557	4727.44
593.65	4634.44
593.744	4686.44
593.837	4740.44
593.931	4659.44
594.025	8170.44
594.118	4936.44
594.212	4574.44
594.305	4620.44
594.399	4527.44
594.492	4754.44
594.586	4357.44
594.679	4288.44
594.773	4366.44
594.866	4238.44
594.96	4276.44
595.053	4087.44
595.146	4021.44
595.24	4015.44
595.333	3959.44
595.427	3869.44
595.52	3803.44
595.614	4007.44
595.707	3872.44
595.8	3751.44
595.894	3723.44
595.987	3597.44
596.08	3533.44
596.174	3846.44
596.267	3739.44
596.36	3556.44
596.454	3608.44
596.547	3576.44
596.64	3393.44
596.733	3358.44
596.827	3536.44
596.92	3292.44
597.013	3218.44
597.106	3233.44
597.2	3297.44
597.293	3245.44
597.386	3467.44
597.479	3422.44
597.572	3344.44
597.666	3254.44
597.759	3193.44
597.852	3328.44
597.945	3169.44
598.038	3179.44
598.131	3141.44
598.224	3065.44
598.317	3199.44
598.411	3208.44
598.504	3100.44
598.597	3137.44
598.69	3196.44
598.783	3003.44
598.876	3170.44
598.969	3187.44
599.062	2972.44
599.155	3163.44
599.248	3064.44
599.341	3057.44
599.434	2953.44
599.527	3091.44
599.62	3072.44
599.713	3006.44
599.806	3042.44
599.899	3238.44
599.991	2988.44
600.084	3259.44
600.177	3014.44
600.27	2966.44
600.363	3169.44
600.456	3014.44
600.549	3022.44
600.642	2887.44
600.734	2984.44
600.827	3043.44
600.92	3020.44
601.013	2959.44
601.106	3054.44
601.199	2952.44
601.291	2916.44
601.384	2951.44
601.477	3072.44
601.57	3040.44
601.662	2942.44
601.755	2872.44
601.848	2907.44
601.94	2879.44
602.033	2980.44
602.126	2878.44
602.219	2809.44
602.311	2948.44
602.404	2788.44
602.497	2854.44
602.589	2834.44
602.682	2838.44
602.774	2854.44
602.867	2902.44
602.96	2823.44
603.052	2766.44
603.145	2805.44
603.237	2856.44
603.33	2770.44
603.422	2966.44
603.515	2824.44
603.608	2787.44
603.7	2793.44
603.793	2855.44
603.885	2786.44
603.978	2777.44
604.07	2825.44
604.163	2733.44
604.255	2805.44
604.347	2733.44
604.44	2772.44
604.532	2723.44
604.625	2782.44
604.717	2729.44
604.81	2867.44
604.902	2757.44
604.994	2728.44
605.087	2752.44
605.179	2638.44
605.271	2798.44
605.364	2690.44
605.456	2791.44
605.548	2737.44
605.641	2768.44
605.733	2665.44
605.825	2687.44
605.918	2637.44
606.01	2783.44
606.102	3051.44
606.194	2765.44
606.287	2876.44
606.379	2633.44
606.471	2736.44
606.563	2703.44
606.655	2714.44
606.748	2782.44
606.84	2669.44
606.932	2725.44
607.024	2582.44
607.116	2664.44
607.208	2639.44
607.301	2706.44
607.393	2680.44
607.485	2627.44
607.577	2699.44
607.669	2705.44
607.761	2660.44
607.853	2909.44
607.945	2580.44
608.037	2497.44
608.129	2575.44
608.221	2591.44
608.313	2545.44
608.405	2628.44
608.497	2572.44
608.589	2588.44
608.681	2581.44
608.773	2674.44
608.865	2687.44
608.957	2507.44
609.049	2485.44
609.141	2727.44
609.233	2541.44
609.325	2494.44
609.417	2605.44
609.509	2678.44
609.601	2687.44
609.693	2661.44
609.784	2599.44
609.876	2582.44
609.968	2621.44
610.06	4791.44
610.152	2748.44
610.244	3315.44
610.335	2565.44
610.427	2480.44
610.519	2433.44
610.611	2467.44
610.702	2464.44
610.794	2437.44
610.886	2467.44
610.978	2388.44
611.069	2847.44
611.161	2412.44
611.253	2492.44
611.344	2238.44
611.436	2208.44
611.528	2340.44
611.62	2136.44
611.711	2197.44
611.803	2175.44
611.894	2104.44
611.986	2060.44
612.078	2140.44
612.169	2124.44
612.261	1994.44
612.352	1940.44
612.444	2036.44
612.536	2077.44
612.627	1923.44
612.719	1887.44
612.81	1810.44
612.902	1811.44
612.993	1835.44
613.085	1848.44
613.176	1724.44
613.268	1742.44
613.359	1762.44
613.451	1657.44
613.542	1660.44
613.634	1650.44
613.725	1657.44
613.816	1666.44
613.908	1550.44
613.999	1512.44
614.091	1378.44
614.182	1398.44
614.273	1468.44
614.365	1381.44
614.456	1302.44
614.547	1353.44
614.639	1259.44
614.73	1237.44
614.821	1332.44
614.913	1150.44
615.004	1125.44
615.095	1129.44
615.187	1063.44
