Data from 7g_HRC06701__17__139.txt Node

Date: Thu Apr 18 01:50:06 CDT 2024
User: Estudiantes 2
Spectrometer: HR+C0670
Trigger mode: 4
Integration Time (sec): 1.000000E0
Scans to average: 1
Electric dark correction enabled: true
Nonlinearity correction enabled: false
Boxcar width: 0
XAxis mode: Wavelengths
Number of Pixels in Spectrum: 2048
>>>>>Begin Spectral Data<<<<<
407.81	-136.88
407.921	-136.88
408.032	-136.88
408.143	-137.88
408.254	-107.88
408.365	-0.88
408.476	230.12
408.587	26.12
408.699	-18.88
408.81	-3.88
408.921	20.12
409.032	-45.88
409.143	36.12
409.254	27.12
409.365	65.12
409.476	-71.88
409.587	9.12
409.698	110.12
409.809	103.12
409.92	-27.88
410.031	14.12
410.142	34.12
410.253	15.12
410.364	70.12
410.475	906.12
410.585	4544.12
410.696	4874.12
410.807	4764.12
410.918	4801.12
411.029	4814.12
411.14	4783.12
411.251	4955.12
411.362	4949.12
411.472	5026.12
411.583	4839.12
411.694	5030.12
411.805	4929.12
411.916	4984.12
412.026	4966.12
412.137	4991.12
412.248	4967.12
412.359	4899.12
412.47	4806.12
412.58	4850.12
412.691	4868.12
412.802	4838.12
412.912	4795.12
413.023	4769.12
413.134	4815.12
413.245	4925.12
413.355	4832.12
413.466	4806.12
413.577	4816.12
413.687	4860.12
413.798	4556.12
413.909	4812.12
414.019	4915.12
414.13	4874.12
414.24	4793.12
414.351	4902.12
414.462	5179.12
414.572	4963.12
414.683	4835.12
414.793	4939.12
414.904	5184.12
415.014	4969.12
415.125	4747.12
415.235	4899.12
415.346	5042.12
415.456	5008.12
415.567	4861.12
415.677	4746.12
415.788	4919.12
415.898	4748.12
416.009	4733.12
416.119	4898.12
416.23	4769.12
416.34	4749.12
416.45	4759.12
416.561	5309.12
416.671	4778.12
416.782	4799.12
416.892	4848.12
417.002	4861.12
417.113	4959.12
417.223	4992.12
417.333	4851.12
417.444	4899.12
417.554	5031.12
417.664	4978.12
417.775	4834.12
417.885	5079.12
417.995	4988.12
418.106	5243.12
418.216	5173.12
418.326	5389.12
418.436	5272.12
418.547	5225.12
418.657	5287.12
418.767	5454.12
418.877	5410.12
418.987	5430.12
419.098	5345.12
419.208	5529.12
419.318	5471.12
419.428	5555.12
419.538	5395.12
419.648	5506.12
419.759	5391.12
419.869	5401.12
419.979	5457.12
420.089	5464.12
420.199	5366.12
420.309	5451.12
420.419	5498.12
420.529	5433.12
420.639	5636.12
420.749	5600.12
420.859	5608.12
420.969	5678.12
421.079	5905.12
421.189	5670.12
421.299	5521.12
421.409	5538.12
421.519	5782.12
421.629	5894.12
421.739	5676.12
421.849	5806.12
421.959	5778.12
422.069	5801.12
422.179	5883.12
422.289	5784.12
422.399	6027.12
422.509	6046.12
422.619	9012.12
422.729	6363.12
422.838	6158.12
422.948	6151.12
423.058	6240.12
423.168	6256.12
423.278	6350.12
423.388	6423.12
423.498	6564.12
423.607	6530.12
423.717	6739.12
423.827	6783.12
423.937	6622.12
424.046	6677.12
424.156	6632.12
424.266	6721.12
424.376	7002.12
424.485	6863.12
424.595	6740.12
424.705	6913.12
424.815	6812.12
424.924	7221.12
425.034	7000.12
425.144	6862.12
425.253	6806.12
425.363	7096.12
425.473	7135.12
425.582	6803.12
425.692	7177.12
425.801	7093.12
425.911	7354.12
426.021	7101.12
426.13	7366.12
426.24	7434.12
426.349	7284.12
426.459	7415.12
426.568	7317.12
426.678	7540.12
426.787	7434.12
426.897	7448.12
427.006	7432.12
427.116	7543.12
427.225	7519.12
427.335	7721.12
427.444	7606.12
427.554	7580.12
427.663	7692.12
427.773	7767.12
427.882	7919.12
427.992	7776.12
428.101	7894.12
428.21	7762.12
428.32	7978.12
428.429	7891.12
428.539	8239.12
428.648	8045.12
428.757	7960.12
428.867	8139.12
428.976	8337.12
429.085	8215.12
429.195	8337.12
429.304	8269.12
429.413	8190.12
429.523	8431.12
429.632	8369.12
429.741	8275.12
429.85	8174.12
429.96	8612.12
430.069	8554.12
430.178	8543.12
430.287	8882.12
430.397	8801.12
430.506	8547.12
430.615	8594.12
430.724	8836.12
430.833	8734.12
430.943	8669.12
431.052	8812.12
431.161	8838.12
431.27	9007.12
431.379	9073.12
431.488	9478.12
431.597	9088.12
431.706	9325.12
431.816	9393.12
431.925	9159.12
432.034	9205.12
432.143	9276.12
432.252	9106.12
432.361	9269.12
432.47	9252.12
432.579	9051.12
432.688	9254.12
432.797	9261.12
432.906	9055.12
433.015	9264.12
433.124	9486.12
433.233	9505.12
433.342	9331.12
433.451	9377.12
433.56	9434.12
433.669	9345.12
433.778	9201.12
433.886	9512.12
433.995	9477.12
434.104	9662.12
434.213	9619.12
434.322	9497.12
434.431	9901.12
434.54	10087.12
434.649	10177.12
434.757	10174.12
434.866	9967.12
434.975	10034.12
435.084	9790.12
435.193	9574.12
435.301	9792.12
435.41	9585.12
435.519	9723.12
435.628	9096.12
435.737	8986.12
435.845	8870.12
435.954	8703.12
436.063	8654.12
436.171	8761.12
436.28	8710.12
436.389	8995.12
436.498	8625.12
436.606	8809.12
436.715	9029.12
436.823	8553.12
436.932	8422.12
437.041	8309.12
437.149	8410.12
437.258	8197.12
437.367	8082.12
437.475	8195.12
437.584	8433.12
437.692	8132.12
437.801	9659.12
437.91	8181.12
438.018	8131.12
438.127	8057.12
438.235	8015.12
438.344	8098.12
438.452	8073.12
438.561	7861.12
438.669	7938.12
438.778	7802.12
438.886	7833.12
438.995	7770.12
439.103	7931.12
439.212	7971.12
439.32	7854.12
439.428	7697.12
439.537	7870.12
439.645	8065.12
439.754	8017.12
439.862	7727.12
439.97	8001.12
440.079	7900.12
440.187	7896.12
440.295	8193.12
440.404	8095.12
440.512	8006.12
440.62	8202.12
440.729	8094.12
440.837	8313.12
440.945	9016.12
441.054	8455.12
441.162	8338.12
441.27	8606.12
441.378	8610.12
441.487	8571.12
441.595	9126.12
441.703	8843.12
441.811	8497.12
441.92	8476.12
442.028	8368.12
442.136	8461.12
442.244	8419.12
442.352	8476.12
442.461	8124.12
442.569	8214.12
442.677	8271.12
442.785	8379.12
442.893	8191.12
443.001	8329.12
443.109	8306.12
443.217	8195.12
443.325	8178.12
443.434	9048.12
443.542	8881.12
443.65	8461.12
443.758	8617.12
443.866	8646.12
443.974	9081.12
444.082	8909.12
444.19	9029.12
444.298	8990.12
444.406	9317.12
444.514	9600.12
444.622	9644.12
444.73	9643.12
444.838	9543.12
444.946	9423.12
445.054	8980.12
445.161	9095.12
445.269	8781.12
445.377	8872.12
445.485	8784.12
445.593	8562.12
445.701	8813.12
445.809	8693.12
445.917	8593.12
446.025	8379.12
446.132	8647.12
446.24	8458.12
446.348	8498.12
446.456	8409.12
446.564	8413.12
446.671	8395.12
446.779	8452.12
446.887	8412.12
446.995	8232.12
447.102	8350.12
447.21	8338.12
447.318	8378.12
447.426	8234.12
447.533	8508.12
447.641	9379.12
447.749	8307.12
447.856	8310.12
447.964	8343.12
448.072	8421.12
448.179	8284.12
448.287	8369.12
448.395	8428.12
448.502	8163.12
448.61	8302.12
448.718	8391.12
448.825	8524.12
448.933	8475.12
449.04	8516.12
449.148	8611.12
449.256	8625.12
449.363	8601.12
449.471	8700.12
449.578	8656.12
449.686	8655.12
449.793	8911.12
449.901	8742.12
450.008	8830.12
450.116	9006.12
450.223	9005.12
450.331	9147.12
450.438	9201.12
450.546	9337.12
450.653	9296.12
450.76	9488.12
450.868	9418.12
450.975	9699.12
451.083	9545.12
451.19	9486.12
451.297	9400.12
451.405	9565.12
451.512	9726.12
451.619	9650.12
451.727	9811.12
451.834	9614.12
451.941	9704.12
452.049	9703.12
452.156	9882.12
452.263	9883.12
452.371	10065.12
452.478	9867.12
452.585	10035.12
452.692	10050.12
452.8	10031.12
452.907	10318.12
453.014	10111.12
453.121	10251.12
453.229	10180.12
453.336	10249.12
453.443	10186.12
453.55	10312.12
453.657	10117.12
453.765	10520.12
453.872	10506.12
453.979	10459.12
454.086	10636.12
454.193	10641.12
454.3	10358.12
454.407	10631.12
454.514	10854.12
454.621	10636.12
454.729	10578.12
454.836	10752.12
454.943	10795.12
455.05	10723.12
455.157	10962.12
455.264	10829.12
455.371	10880.12
455.478	10859.12
455.585	12298.12
455.692	11178.12
455.799	11266.12
455.906	11033.12
456.013	11063.12
456.12	11205.12
456.227	11170.12
456.334	11465.12
456.44	11342.12
456.547	11405.12
456.654	11332.12
456.761	11652.12
456.868	11545.12
456.975	11737.12
457.082	11580.12
457.189	11456.12
457.296	11634.12
457.402	11788.12
457.509	11522.12
457.616	12033.12
457.723	12408.12
457.83	11994.12
457.936	12217.12
458.043	12606.12
458.15	12216.12
458.257	12450.12
458.363	12894.12
458.47	12883.12
458.577	12926.12
458.684	12954.12
458.79	13399.12
458.897	13360.12
459.004	13767.12
459.11	13611.12
459.217	13602.12
459.324	13800.12
459.43	14291.12
459.537	14325.12
459.644	14410.12
459.75	14352.12
459.857	14548.12
459.964	14548.12
460.07	14548.12
460.177	14548.12
460.283	14548.12
460.39	14548.12
460.496	14548.12
460.603	14548.12
460.71	14548.12
460.816	14548.12
460.923	14548.12
461.029	14548.12
461.136	14548.12
461.242	14548.12
461.349	14548.12
461.455	14548.12
461.562	14548.12
461.668	14548.12
461.774	14548.12
461.881	14548.12
461.987	14548.12
462.094	14548.12
462.2	14548.12
462.307	14548.12
462.413	14548.12
462.519	14548.12
462.626	14548.12
462.732	14548.12
462.838	14548.12
462.945	14548.12
463.051	14548.12
463.157	14548.12
463.264	14548.12
463.37	14548.12
463.476	14548.12
463.583	14548.12
463.689	14548.12
463.795	14548.12
463.901	14548.12
464.008	14548.12
464.114	14548.12
464.22	14548.12
464.326	14548.12
464.433	14548.12
464.539	14548.12
464.645	14548.12
464.751	14548.12
464.857	14548.12
464.963	14375.12
465.07	14186.12
465.176	13757.12
465.282	13518.12
465.388	13358.12
465.494	12903.12
465.6	12806.12
465.706	12434.12
465.812	12400.12
465.918	12244.12
466.024	12197.12
466.131	11931.12
466.237	11751.12
466.343	11579.12
466.449	11424.12
466.555	11275.12
466.661	11155.12
466.767	11074.12
466.873	10978.12
466.979	10950.12
467.085	10810.12
467.191	10921.12
467.296	10931.12
467.402	10824.12
467.508	10715.12
467.614	10814.12
467.72	10458.12
467.826	10426.12
467.932	10214.12
468.038	10147.12
468.144	10169.12
468.25	9938.12
468.355	10082.12
468.461	9904.12
468.567	9871.12
468.673	10075.12
468.779	9855.12
468.885	9725.12
468.99	9883.12
469.096	9922.12
469.202	9966.12
469.308	9832.12
469.413	10147.12
469.519	10103.12
469.625	9916.12
469.731	10051.12
469.836	9914.12
469.942	10162.12
470.048	10111.12
470.153	10059.12
470.259	10103.12
470.365	10186.12
470.47	10212.12
470.576	9975.12
470.682	9796.12
470.787	9904.12
470.893	9487.12
470.999	9767.12
471.104	9628.12
471.21	9460.12
471.315	9349.12
471.421	9313.12
471.527	9277.12
471.632	9187.12
471.738	9129.12
471.843	8959.12
471.949	8890.12
472.054	8865.12
472.16	8786.12
472.265	8572.12
472.371	8635.12
472.476	8751.12
472.582	8735.12
472.687	8569.12
472.793	8533.12
472.898	8542.12
473.003	8448.12
473.109	8340.12
473.214	8489.12
473.32	8473.12
473.425	8402.12
473.53	8423.12
473.636	8159.12
473.741	8182.12
473.847	8321.12
473.952	8361.12
474.057	8195.12
474.163	8350.12
474.268	8277.12
474.373	8306.12
474.478	8238.12
474.584	8291.12
474.689	8296.12
474.794	8207.12
474.9	8528.12
475.005	8224.12
475.11	8429.12
475.215	8330.12
475.321	8310.12
475.426	8476.12
475.531	8416.12
475.636	8345.12
475.741	8212.12
475.846	8617.12
475.952	8619.12
476.057	8482.12
476.162	8617.12
476.267	8598.12
476.372	8875.12
476.477	8617.12
476.582	8646.12
476.687	8657.12
476.793	8656.12
476.898	8720.12
477.003	8635.12
477.108	8858.12
477.213	8779.12
477.318	8895.12
477.423	9058.12
477.528	9123.12
477.633	9226.12
477.738	9245.12
477.843	9185.12
477.948	9455.12
478.053	9379.12
478.158	9463.12
478.263	9553.12
478.368	9565.12
478.473	9591.12
478.578	9951.12
478.682	9770.12
478.787	9950.12
478.892	9879.12
478.997	10018.12
479.102	9904.12
479.207	9883.12
479.312	10140.12
479.417	9836.12
479.521	10034.12
479.626	10211.12
479.731	10095.12
479.836	10231.12
479.941	10462.12
480.045	10472.12
480.15	10530.12
480.255	10699.12
480.36	10756.12
480.465	10671.12
480.569	10920.12
480.674	10538.12
480.779	10283.12
480.883	10409.12
480.988	10458.12
481.093	10386.12
481.197	10225.12
481.302	10294.12
481.407	10359.12
481.511	11894.12
481.616	10289.12
481.721	10341.12
481.825	10486.12
481.93	10234.12
482.035	10323.12
482.139	10396.12
482.244	10498.12
482.348	10486.12
482.453	10444.12
482.557	10633.12
482.662	10696.12
482.767	10662.12
482.871	10727.12
482.976	10684.12
483.08	10847.12
483.185	11073.12
483.289	10943.12
483.394	10924.12
483.498	11018.12
483.603	11201.12
483.707	11193.12
483.811	11293.12
483.916	11338.12
484.02	11371.12
484.125	11646.12
484.229	11571.12
484.333	11837.12
484.438	11708.12
484.542	11673.12
484.647	11879.12
484.751	12157.12
484.855	12124.12
484.96	12078.12
485.064	12317.12
485.168	12278.12
485.273	12335.12
485.377	12561.12
485.481	12621.12
485.585	12573.12
485.69	12666.12
485.794	12719.12
485.898	12622.12
486.002	12843.12
486.107	12816.12
486.211	12671.12
486.315	12829.12
486.419	12830.12
486.524	12858.12
486.628	12817.12
486.732	12887.12
486.836	12781.12
486.94	12839.12
487.044	12832.12
487.148	12939.12
487.253	12903.12
487.357	13045.12
487.461	13151.12
487.565	12929.12
487.669	12843.12
487.773	12958.12
487.877	12894.12
487.981	12905.12
488.085	13055.12
488.189	12922.12
488.293	13048.12
488.397	13335.12
488.501	13068.12
488.605	12899.12
488.709	12909.12
488.813	13008.12
488.917	12822.12
489.021	13033.12
489.125	13167.12
489.229	12895.12
489.333	13204.12
489.437	13224.12
489.541	13057.12
489.645	12979.12
489.749	13170.12
489.853	13075.12
489.956	13072.12
490.06	13132.12
490.164	13121.12
490.268	13082.12
490.372	13037.12
490.476	13296.12
490.579	13128.12
490.683	13802.12
490.787	13304.12
490.891	13236.12
490.995	13098.12
491.098	13199.12
491.202	13131.12
491.306	13107.12
491.41	13084.12
491.513	13166.12
491.617	13088.12
491.721	13145.12
491.824	13377.12
491.928	13139.12
492.032	13311.12
492.136	13220.12
492.239	13058.12
492.343	13079.12
492.446	13596.12
492.55	13122.12
492.654	13002.12
492.757	13067.12
492.861	13237.12
492.965	12943.12
493.068	13217.12
493.172	13338.12
493.275	12983.12
493.379	12956.12
493.482	13154.12
493.586	13282.12
493.689	13288.12
493.793	13123.12
493.896	13250.12
494	13210.12
494.103	13272.12
494.207	13365.12
494.31	13526.12
494.414	13311.12
494.517	13116.12
494.621	12975.12
494.724	12994.12
494.828	13001.12
494.931	12946.12
495.034	13014.12
495.138	13168.12
495.241	12696.12
495.345	13532.12
495.448	13112.12
495.551	12833.12
495.655	12824.12
495.758	12823.12
495.861	12747.12
495.965	12805.12
496.068	12824.12
496.171	13143.12
496.274	12835.12
496.378	12891.12
496.481	12982.12
496.584	13071.12
496.687	12984.12
496.791	12966.12
496.894	13240.12
496.997	13239.12
497.1	13152.12
497.204	13405.12
497.307	13378.12
497.41	13718.12
497.513	13871.12
497.616	13591.12
497.719	13660.12
497.823	13994.12
497.926	14180.12
498.029	14339.12
498.132	14447.12
498.235	14548.12
498.338	14548.12
498.441	14548.12
498.544	14548.12
498.647	14548.12
498.75	14548.12
498.853	14548.12
498.956	14548.12
499.059	14548.12
499.163	14548.12
499.266	14548.12
499.369	14548.12
499.471	14548.12
499.574	14548.12
499.677	14548.12
499.78	14548.12
499.883	14548.12
499.986	14548.12
500.089	14548.12
500.192	14548.12
500.295	14548.12
500.398	14548.12
500.501	14548.12
500.604	14548.12
500.707	14548.12
500.809	14548.12
500.912	14548.12
501.015	14548.12
501.118	14548.12
501.221	14548.12
501.324	14548.12
501.426	14548.12
501.529	14548.12
501.632	14548.12
501.735	14548.12
501.837	14548.12
501.94	14548.12
502.043	14548.12
502.146	14548.12
502.248	14327.12
502.351	13975.12
502.454	13795.12
502.557	13514.12
502.659	13255.12
502.762	12868.12
502.865	12855.12
502.967	12422.12
503.07	12355.12
503.173	12158.12
503.275	12036.12
503.378	11883.12
503.48	11784.12
503.583	11715.12
503.686	11613.12
503.788	11800.12
503.891	11569.12
503.993	11869.12
504.096	11683.12
504.198	11766.12
504.301	11547.12
504.403	11591.12
504.506	11353.12
504.608	11239.12
504.711	11132.12
504.813	10982.12
504.916	10688.12
505.018	10476.12
505.121	10367.12
505.223	10213.12
505.326	10033.12
505.428	9968.12
505.531	9870.12
505.633	9834.12
505.735	9507.12
505.838	9504.12
505.94	9486.12
506.042	9363.12
506.145	9342.12
506.247	9339.12
506.35	9102.12
506.452	9257.12
506.554	9201.12
506.656	9022.12
506.759	9136.12
506.861	9139.12
506.963	8951.12
507.066	9034.12
507.168	9016.12
507.27	8831.12
507.372	8721.12
507.475	8764.12
507.577	8807.12
507.679	8673.12
507.781	8530.12
507.883	8662.12
507.986	8562.12
508.088	8524.12
508.19	8558.12
508.292	8524.12
508.394	8516.12
508.496	8435.12
508.598	8499.12
508.701	8494.12
508.803	8464.12
508.905	8284.12
509.007	8371.12
509.109	8455.12
509.211	8331.12
509.313	8238.12
509.415	8155.12
509.517	8220.12
509.619	8214.12
509.721	8223.12
509.823	8176.12
509.925	8350.12
510.027	8164.12
510.129	8210.12
510.231	8293.12
510.333	8063.12
510.435	8111.12
510.537	8353.12
510.639	8329.12
510.741	8194.12
510.843	8218.12
510.945	8090.12
511.047	8255.12
511.148	8291.12
511.25	8013.12
511.352	8194.12
511.454	8045.12
511.556	8206.12
511.658	8129.12
511.76	8283.12
511.861	8341.12
511.963	8070.12
512.065	8132.12
512.167	8156.12
512.268	8407.12
512.37	8200.12
512.472	8280.12
512.574	8314.12
512.676	8381.12
512.777	8336.12
512.879	8389.12
512.981	8222.12
513.082	8272.12
513.184	8311.12
513.286	8643.12
513.387	8387.12
513.489	8647.12
513.591	8411.12
513.692	8542.12
513.794	8591.12
513.896	8251.12
513.997	8446.12
514.099	8407.12
514.2	8500.12
514.302	8504.12
514.404	8487.12
514.505	8577.12
514.607	8818.12
514.708	8661.12
514.81	8758.12
514.911	8797.12
515.013	8859.12
515.114	8843.12
515.216	8817.12
515.317	8900.12
515.419	8912.12
515.52	9088.12
515.622	8967.12
515.723	9099.12
515.825	9407.12
515.926	9288.12
516.027	9346.12
516.129	9502.12
516.23	9703.12
516.332	9809.12
516.433	9956.12
516.534	10079.12
516.636	10134.12
516.737	10326.12
516.838	11411.12
516.94	10743.12
517.041	10849.12
517.142	10984.12
517.244	11209.12
517.345	11267.12
517.446	11421.12
517.547	11430.12
517.649	11506.12
517.75	11465.12
517.851	11482.12
517.952	11614.12
518.054	11367.12
518.155	11320.12
518.256	10933.12
518.357	11032.12
518.458	10811.12
518.56	10624.12
518.661	10526.12
518.762	10494.12
518.863	10534.12
518.964	10365.12
519.065	10239.12
519.166	9951.12
519.268	10013.12
519.369	10213.12
519.47	9886.12
519.571	9911.12
519.672	9859.12
519.773	9731.12
519.874	9736.12
519.975	9661.12
520.076	9695.12
520.177	9600.12
520.278	9549.12
520.379	9680.12
520.48	9488.12
520.581	9325.12
520.682	9560.12
520.783	9438.12
520.884	9558.12
520.985	9543.12
521.086	9514.12
521.187	9435.12
521.288	9369.12
521.389	9382.12
521.489	9346.12
521.59	9396.12
521.691	9476.12
521.792	9257.12
521.893	9402.12
521.994	9471.12
522.095	9267.12
522.195	9305.12
522.296	9420.12
522.397	9359.12
522.498	9218.12
522.599	9288.12
522.699	9247.12
522.8	9378.12
522.901	9383.12
523.002	9376.12
523.102	9520.12
523.203	9306.12
523.304	9489.12
523.405	9296.12
523.505	9288.12
523.606	9439.12
523.707	9391.12
523.807	9376.12
523.908	9346.12
524.009	9627.12
524.109	9481.12
524.21	9414.12
524.31	9438.12
524.411	9488.12
524.512	9533.12
524.612	9521.12
524.713	9533.12
524.813	9424.12
524.914	9738.12
525.014	13887.12
525.115	9737.12
525.216	9391.12
525.316	9442.12
525.417	9392.12
525.517	9447.12
525.618	9429.12
525.718	9408.12
525.819	9351.12
525.919	9431.12
526.019	9465.12
526.12	9391.12
526.22	9404.12
526.321	9262.12
526.421	9315.12
526.522	9401.12
526.622	9223.12
526.722	9218.12
526.823	9277.12
526.923	9433.12
527.023	9363.12
527.124	9299.12
527.224	9455.12
527.324	9243.12
527.425	9309.12
527.525	9317.12
527.625	9143.12
527.726	9278.12
527.826	9504.12
527.926	9346.12
528.026	9382.12
528.127	9355.12
528.227	9258.12
528.327	9297.12
528.427	9283.12
528.528	9487.12
528.628	9406.12
528.728	9338.12
528.828	9459.12
528.928	9387.12
529.029	9223.12
529.129	9388.12
529.229	9262.12
529.329	9289.12
529.429	9356.12
529.529	9412.12
529.629	9193.12
529.729	9179.12
529.829	9451.12
529.93	9232.12
530.03	9083.12
530.13	9146.12
530.23	9058.12
530.33	9066.12
530.43	9151.12
530.53	9000.12
530.63	9002.12
530.73	8897.12
530.83	8937.12
530.93	8935.12
531.03	9024.12
531.13	8980.12
531.23	8835.12
531.33	8926.12
531.429	8963.12
531.529	8868.12
531.629	8855.12
531.729	8812.12
531.829	8945.12
531.929	8795.12
532.029	8718.12
532.129	8736.12
532.229	8785.12
532.328	8711.12
532.428	8776.12
532.528	8704.12
532.628	8748.12
532.728	8764.12
532.827	8474.12
532.927	8602.12
533.027	8725.12
533.127	8764.12
533.227	8647.12
533.326	8606.12
533.426	8507.12
533.526	8556.12
533.625	8649.12
533.725	8706.12
533.825	8546.12
533.924	8471.12
534.024	8180.12
534.124	8230.12
534.223	8264.12
534.323	8696.12
534.423	8332.12
534.522	8245.12
534.622	8112.12
534.722	8187.12
534.821	8220.12
534.921	8064.12
535.02	8095.12
535.12	8063.12
535.219	8142.12
535.319	8120.12
535.419	8050.12
535.518	7934.12
535.618	7936.12
535.717	7800.12
535.817	7675.12
535.916	7690.12
536.016	7875.12
536.115	7656.12
536.215	7612.12
536.314	7618.12
536.413	7388.12
536.513	7479.12
536.612	7430.12
536.712	7327.12
536.811	7406.12
536.91	7463.12
537.01	7378.12
537.109	7435.12
537.209	7387.12
537.308	7453.12
537.407	7339.12
537.507	7249.12
537.606	7298.12
537.705	7341.12
537.805	7207.12
537.904	7050.12
538.003	7091.12
538.102	7299.12
538.202	7144.12
538.301	7210.12
538.4	7209.12
538.499	7174.12
538.599	7104.12
538.698	7347.12
538.797	7048.12
538.896	7261.12
538.995	7070.12
539.095	6991.12
539.194	7249.12
539.293	6946.12
539.392	6897.12
539.491	6908.12
539.59	6864.12
539.689	7039.12
539.789	6911.12
539.888	6718.12
539.987	6634.12
540.086	6733.12
540.185	6853.12
540.284	6844.12
540.383	6665.12
540.482	6832.12
540.581	6759.12
540.68	6764.12
540.779	6792.12
540.878	6850.12
540.977	6838.12
541.076	6735.12
541.175	6715.12
541.274	6921.12
541.373	6732.12
541.472	6772.12
541.571	6585.12
541.67	7870.12
541.769	6784.12
541.868	6501.12
541.966	6660.12
542.065	6637.12
542.164	6613.12
542.263	6515.12
542.362	6483.12
542.461	6574.12
542.56	6505.12
542.658	6609.12
542.757	6413.12
542.856	6296.12
542.955	6354.12
543.054	6340.12
543.152	6516.12
543.251	6292.12
543.35	6547.12
543.449	6438.12
543.547	6363.12
543.646	6360.12
543.745	6503.12
543.843	6504.12
543.942	6445.12
544.041	6425.12
544.14	6471.12
544.238	6369.12
544.337	6662.12
544.436	6359.12
544.534	6621.12
544.633	6516.12
544.731	6409.12
544.83	6459.12
544.929	6486.12
545.027	6431.12
545.126	6459.12
545.224	6585.12
545.323	6465.12
545.421	6419.12
545.52	6478.12
545.619	6605.12
545.717	6447.12
545.816	6531.12
545.914	6557.12
546.013	6603.12
546.111	6695.12
546.209	6476.12
546.308	6366.12
546.406	6275.12
546.505	6528.12
546.603	6503.12
546.702	6233.12
546.8	6237.12
546.899	6386.12
546.997	6454.12
547.095	6349.12
547.194	6403.12
547.292	6332.12
547.39	6568.12
547.489	6382.12
547.587	6590.12
547.685	6363.12
547.784	6614.12
547.882	6498.12
547.98	6413.12
548.079	6526.12
548.177	6458.12
548.275	6395.12
548.373	6541.12
548.472	6384.12
548.57	6378.12
548.668	6559.12
548.766	6415.12
548.864	6510.12
548.963	6370.12
549.061	6644.12
549.159	6349.12
549.257	6547.12
549.355	6574.12
549.454	6561.12
549.552	6473.12
549.65	6503.12
549.748	6540.12
549.846	6431.12
549.944	6483.12
550.042	6446.12
550.14	6370.12
550.238	6342.12
550.336	6244.12
550.434	6143.12
550.532	6366.12
550.631	6487.12
550.729	6277.12
550.827	6301.12
550.925	6337.12
551.023	6288.12
551.121	6227.12
551.218	6268.12
551.316	6190.12
551.414	6198.12
551.512	6133.12
551.61	6418.12
551.708	6442.12
551.806	6345.12
551.904	6307.12
552.002	6381.12
552.1	6422.12
552.198	6441.12
552.296	6762.12
552.393	6790.12
552.491	6842.12
552.589	6795.12
552.687	6839.12
552.785	6824.12
552.882	7033.12
552.98	7079.12
553.078	6984.12
553.176	6966.12
553.274	6878.12
553.371	6830.12
553.469	6822.12
553.567	6862.12
553.665	6692.12
553.762	7173.12
553.86	6872.12
553.958	6625.12
554.055	6539.12
554.153	6659.12
554.251	6535.12
554.348	6601.12
554.446	6397.12
554.544	6422.12
554.641	6724.12
554.739	6349.12
554.837	6394.12
554.934	6265.12
555.032	6219.12
555.129	6236.12
555.227	6503.12
555.324	10080.12
555.422	6395.12
555.519	6136.12
555.617	6005.12
555.715	6039.12
555.812	7681.12
555.91	6043.12
556.007	6040.12
556.105	6010.12
556.202	6026.12
556.299	5893.12
556.397	5962.12
556.494	5795.12
556.592	5953.12
556.689	6082.12
556.787	5857.12
556.884	5836.12
556.981	5985.12
557.079	5987.12
557.176	5885.12
557.273	5942.12
557.371	5983.12
557.468	5891.12
557.566	5880.12
557.663	5897.12
557.76	5838.12
557.857	5813.12
557.955	5919.12
558.052	5909.12
558.149	5915.12
558.247	5980.12
558.344	5814.12
558.441	5851.12
558.538	5897.12
558.636	6076.12
558.733	5859.12
558.83	5889.12
558.927	6019.12
559.024	5856.12
559.122	5824.12
559.219	5913.12
559.316	5963.12
559.413	5963.12
559.51	5762.12
559.607	5857.12
559.704	5867.12
559.801	6032.12
559.899	5872.12
559.996	6187.12
560.093	5969.12
560.19	5881.12
560.287	5862.12
560.384	6064.12
560.481	5971.12
560.578	5960.12
560.675	5922.12
560.772	5972.12
560.869	6026.12
560.966	6119.12
561.063	5937.12
561.16	6153.12
561.257	6008.12
561.354	6019.12
561.451	6000.12
561.548	6069.12
561.645	6220.12
561.742	5999.12
561.838	6045.12
561.935	6013.12
562.032	6069.12
562.129	6097.12
562.226	5944.12
562.323	6087.12
562.42	6077.12
562.516	6125.12
562.613	6080.12
562.71	6236.12
562.807	6893.12
562.904	6153.12
563	6201.12
563.097	6117.12
563.194	6121.12
563.291	6212.12
563.387	6254.12
563.484	6296.12
563.581	6335.12
563.678	6303.12
563.774	6664.12
563.871	6439.12
563.968	6531.12
564.064	6410.12
564.161	6357.12
564.258	6561.12
564.354	6606.12
564.451	6508.12
564.548	6720.12
564.644	6663.12
564.741	6611.12
564.837	6713.12
564.934	6727.12
565.031	6923.12
565.127	7006.12
565.224	7208.12
565.32	7387.12
565.417	7266.12
565.513	7415.12
565.61	7490.12
565.706	7677.12
565.803	7780.12
565.899	7811.12
565.996	8049.12
566.092	8093.12
566.189	8390.12
566.285	8689.12
566.382	8775.12
566.478	9161.12
566.574	9242.12
566.671	9241.12
566.767	9516.12
566.864	9353.12
566.96	9467.12
567.056	9574.12
567.153	9835.12
567.249	9706.12
567.345	10055.12
567.442	10267.12
567.538	10393.12
567.634	10453.12
567.731	10540.12
567.827	10476.12
567.923	10528.12
568.019	10024.12
568.116	9696.12
568.212	9331.12
568.308	9234.12
568.404	8799.12
568.501	8645.12
568.597	8413.12
568.693	8179.12
568.789	8615.12
568.885	7736.12
568.982	7735.12
569.078	7393.12
569.174	7387.12
569.27	7138.12
569.366	7069.12
569.462	7011.12
569.558	6860.12
569.655	6752.12
569.751	6685.12
569.847	6661.12
569.943	6602.12
570.039	6464.12
570.135	6938.12
570.231	6565.12
570.327	6553.12
570.423	6463.12
570.519	6573.12
570.615	6314.12
570.711	6521.12
570.807	6526.12
570.903	6408.12
570.999	6272.12
571.095	6393.12
571.191	6239.12
571.287	6128.12
571.383	6213.12
571.479	6014.12
571.574	6078.12
571.67	5911.12
571.766	6072.12
571.862	5785.12
571.958	5760.12
572.054	5784.12
572.15	5599.12
572.246	5561.12
572.341	5647.12
572.437	5518.12
572.533	5456.12
572.629	5538.12
572.725	5324.12
572.82	5391.12
572.916	5452.12
573.012	5469.12
573.108	5366.12
573.203	5385.12
573.299	5272.12
573.395	5183.12
573.49	5137.12
573.586	5120.12
573.682	5080.12
573.778	5196.12
573.873	5079.12
573.969	5154.12
574.065	5035.12
574.16	5088.12
574.256	5188.12
574.351	5115.12
574.447	5010.12
574.543	5068.12
574.638	5086.12
574.734	5025.12
574.829	5229.12
574.925	5037.12
575.02	4952.12
575.116	4908.12
575.212	4992.12
575.307	4975.12
575.403	4848.12
575.498	4921.12
575.594	4730.12
575.689	4892.12
575.784	4709.12
575.88	4736.12
575.975	4715.12
576.071	4656.12
576.166	4628.12
576.262	4643.12
576.357	4733.12
576.452	4815.12
576.548	4589.12
576.643	4595.12
576.739	4643.12
576.834	4434.12
576.929	4548.12
577.025	5192.12
577.12	4414.12
577.215	4377.12
577.311	4442.12
577.406	4524.12
577.501	4472.12
577.597	4349.12
577.692	4484.12
577.787	4449.12
577.882	4340.12
577.978	4388.12
578.073	4233.12
578.168	4258.12
578.263	4233.12
578.358	4186.12
578.454	4158.12
578.549	4187.12
578.644	4041.12
578.739	4092.12
578.834	4131.12
578.929	4179.12
579.025	4027.12
579.12	4111.12
579.215	4290.12
579.31	4198.12
579.405	3904.12
579.5	4036.12
579.595	3952.12
579.69	3839.12
579.785	3983.12
579.88	3909.12
579.975	3879.12
580.07	3953.12
580.165	3916.12
580.26	3915.12
580.355	3764.12
580.45	3774.12
580.545	3762.12
580.64	3858.12
580.735	3988.12
580.83	3808.12
580.925	3741.12
581.02	3787.12
581.115	3708.12
581.21	3589.12
581.305	3749.12
581.4	3726.12
581.495	3694.12
581.589	3686.12
581.684	3642.12
581.779	3655.12
581.874	3655.12
581.969	3650.12
582.064	3532.12
582.158	3623.12
582.253	3547.12
582.348	3535.12
582.443	3538.12
582.537	3595.12
582.632	3721.12
582.727	3545.12
582.822	3483.12
582.916	3458.12
583.011	3437.12
583.106	3450.12
583.201	3420.12
583.295	3506.12
583.39	3367.12
583.485	3425.12
583.579	5539.12
583.674	3470.12
583.769	3563.12
583.863	3361.12
583.958	3329.12
584.052	3315.12
584.147	3367.12
584.242	3257.12
584.336	3327.12
584.431	3537.12
584.525	3246.12
584.62	3347.12
584.714	3389.12
584.809	3297.12
584.903	3323.12
584.998	3428.12
585.092	3171.12
585.187	3297.12
585.281	3284.12
585.376	3185.12
585.47	3222.12
585.565	3193.12
585.659	3174.12
585.754	3127.12
585.848	3281.12
585.942	3253.12
586.037	3039.12
586.131	5324.12
586.226	3278.12
586.32	3186.12
586.414	3001.12
586.509	3198.12
586.603	3152.12
586.697	3114.12
586.792	3058.12
586.886	3107.12
586.98	3120.12
587.075	2984.12
587.169	3063.12
587.263	3059.12
587.357	3067.12
587.452	3042.12
587.546	3051.12
587.64	3006.12
587.734	3017.12
587.829	3063.12
587.923	2937.12
588.017	3020.12
588.111	2916.12
588.205	3022.12
588.3	2959.12
588.394	2990.12
588.488	2989.12
588.582	3127.12
588.676	3244.12
588.77	3591.12
588.864	5307.12
588.958	5518.12
589.052	4790.12
589.147	3829.12
589.241	3404.12
589.335	3382.12
589.429	4079.12
589.523	4612.12
589.617	4402.12
589.711	3680.12
589.805	3325.12
589.899	3196.12
589.993	2939.12
590.087	2917.12
590.181	2915.12
590.275	3014.12
590.369	2934.12
590.462	2863.12
590.556	2909.12
590.65	2833.12
590.744	2825.12
590.838	2867.12
590.932	2963.12
591.026	2944.12
591.12	3047.12
591.214	2949.12
591.307	2972.12
591.401	2895.12
591.495	2946.12
591.589	2899.12
591.683	2986.12
591.777	3020.12
591.87	3374.12
591.964	3018.12
592.058	3046.12
592.152	3119.12
592.245	3035.12
592.339	3258.12
592.433	3159.12
592.527	3159.12
592.62	3153.12
592.714	3279.12
592.808	3237.12
592.901	3306.12
592.995	3222.12
593.089	3430.12
593.182	3266.12
593.276	3315.12
593.37	3164.12
593.463	3275.12
593.557	3311.12
593.65	3192.12
593.744	3156.12
593.837	3329.12
593.931	3262.12
594.025	6855.12
594.118	3559.12
594.212	3208.12
594.305	3147.12
594.399	3203.12
594.492	3497.12
594.586	3044.12
594.679	3002.12
594.773	2993.12
594.866	3013.12
594.96	2936.12
595.053	2863.12
595.146	2865.12
595.24	2759.12
595.333	2821.12
595.427	2675.12
595.52	2697.12
595.614	2795.12
595.707	2743.12
595.8	2641.12
595.894	2593.12
595.987	2590.12
596.08	2492.12
596.174	2826.12
596.267	2632.12
596.36	2619.12
596.454	2615.12
596.547	2539.12
596.64	2414.12
596.733	2380.12
596.827	2487.12
596.92	2491.12
597.013	2333.12
597.106	2321.12
597.2	2363.12
597.293	2357.12
597.386	2479.12
597.479	2411.12
597.572	2387.12
597.666	2191.12
597.759	2243.12
597.852	2368.12
597.945	2202.12
598.038	2237.12
598.131	2277.12
598.224	2176.12
598.317	2293.12
598.411	2277.12
598.504	2162.12
598.597	2315.12
598.69	2277.12
598.783	2241.12
598.876	2195.12
598.969	2302.12
599.062	2149.12
599.155	2296.12
599.248	2217.12
599.341	2312.12
599.434	2156.12
599.527	2224.12
599.62	2222.12
599.713	2138.12
599.806	2185.12
599.899	2344.12
599.991	2133.12
600.084	2333.12
600.177	2140.12
600.27	2137.12
600.363	2336.12
600.456	2161.12
600.549	2239.12
600.642	1995.12
600.734	2083.12
600.827	2245.12
600.92	2222.12
601.013	2112.12
601.106	2270.12
601.199	2141.12
601.291	2062.12
601.384	2126.12
601.477	2226.12
601.57	2170.12
601.662	2111.12
601.755	2104.12
601.848	2107.12
601.94	2046.12
602.033	2267.12
602.126	2124.12
602.219	2026.12
602.311	2241.12
602.404	2009.12
602.497	1986.12
602.589	2106.12
602.682	2102.12
602.774	2062.12
602.867	2092.12
602.96	2070.12
603.052	2041.12
603.145	2071.12
603.237	2138.12
603.33	2053.12
603.422	2198.12
603.515	2064.12
603.608	2087.12
603.7	2054.12
603.793	2100.12
603.885	2074.12
603.978	2093.12
604.07	1994.12
604.163	2030.12
604.255	2054.12
604.347	1992.12
604.44	1956.12
604.532	1961.12
604.625	2043.12
604.717	2035.12
604.81	2041.12
604.902	1977.12
604.994	2003.12
605.087	1969.12
605.179	1969.12
605.271	2036.12
605.364	2015.12
605.456	2038.12
605.548	1961.12
605.641	1950.12
605.733	1949.12
605.825	2027.12
605.918	2049.12
606.01	2159.12
606.102	2321.12
606.194	2047.12
606.287	2077.12
606.379	1921.12
606.471	1971.12
606.563	2051.12
606.655	2029.12
606.748	2011.12
606.84	1939.12
606.932	2040.12
607.024	1947.12
607.116	1932.12
607.208	1957.12
607.301	1993.12
607.393	1901.12
607.485	1849.12
607.577	1998.12
607.669	2038.12
607.761	2002.12
607.853	2185.12
607.945	1920.12
608.037	1895.12
608.129	1907.12
608.221	1890.12
608.313	1939.12
608.405	1976.12
608.497	1929.12
608.589	1911.12
608.681	1924.12
608.773	1958.12
608.865	1935.12
608.957	1904.12
609.049	1859.12
609.141	2044.12
609.233	1895.12
609.325	1894.12
609.417	1873.12
609.509	2032.12
609.601	2008.12
609.693	1960.12
609.784	1942.12
609.876	1978.12
609.968	1927.12
610.06	3922.12
610.152	2057.12
610.244	2107.12
610.335	1911.12
610.427	1859.12
610.519	1835.12
610.611	1859.12
610.702	1848.12
610.794	1788.12
610.886	1906.12
610.978	1786.12
611.069	2220.12
611.161	1754.12
611.253	1859.12
611.344	1672.12
611.436	1591.12
611.528	1652.12
611.62	1652.12
611.711	1612.12
611.803	1580.12
611.894	1616.12
611.986	1557.12
612.078	1554.12
612.169	1566.12
612.261	1484.12
612.352	1436.12
612.444	1457.12
612.536	1538.12
612.627	1456.12
612.719	1347.12
612.81	1264.12
612.902	1327.12
612.993	1334.12
613.085	1342.12
613.176	1217.12
613.268	1284.12
613.359	1292.12
613.451	1254.12
613.542	1285.12
613.634	1267.12
613.725	1225.12
613.816	1244.12
613.908	1167.12
613.999	1120.12
614.091	1028.12
614.182	1038.12
614.273	1113.12
614.365	1011.12
614.456	953.12
614.547	992.12
614.639	889.12
614.73	924.12
614.821	1036.12
614.913	850.12
615.004	817.12
615.095	896.12
615.187	819.12
