Data from 7g_HRC06701__26__148.txt Node

Date: Thu Apr 18 01:50:15 CDT 2024
User: Estudiantes 2
Spectrometer: HR+C0670
Trigger mode: 4
Integration Time (sec): 1.000000E0
Scans to average: 1
Electric dark correction enabled: true
Nonlinearity correction enabled: false
Boxcar width: 0
XAxis mode: Wavelengths
Number of Pixels in Spectrum: 2048
>>>>>Begin Spectral Data<<<<<
407.81	-109.56
407.921	-109.56
408.032	-109.56
408.143	-115.56
408.254	-133.56
408.365	37.44
408.476	243.44
408.587	-27.56
408.699	-14.56
408.81	13.44
408.921	-63.56
409.032	-41.56
409.143	64.44
409.254	27.44
409.365	77.44
409.476	18.44
409.587	-6.56
409.698	30.44
409.809	103.44
409.92	-33.56
410.031	-36.56
410.142	23.44
410.253	39.44
410.364	29.44
410.475	1950.44
410.585	9345.44
410.696	9871.44
410.807	9590.44
410.918	9746.44
411.029	9811.44
411.14	9793.44
411.251	10001.44
411.362	9826.44
411.472	10027.44
411.583	9880.44
411.694	10156.44
411.805	10054.44
411.916	10336.44
412.026	10216.44
412.137	9983.44
412.248	10038.44
412.359	10134.44
412.47	9857.44
412.58	9736.44
412.691	9965.44
412.802	9834.44
412.912	9894.44
413.023	9891.44
413.134	9589.44
413.245	9719.44
413.355	9852.44
413.466	9995.44
413.577	9782.44
413.687	9880.44
413.798	9667.44
413.909	9815.44
414.019	9790.44
414.13	9971.44
414.24	9896.44
414.351	10032.44
414.462	10245.44
414.572	9939.44
414.683	10016.44
414.793	10038.44
414.904	10199.44
415.014	9886.44
415.125	9834.44
415.235	9993.44
415.346	9965.44
415.456	10068.44
415.567	9947.44
415.677	9681.44
415.788	9802.44
415.898	9726.44
416.009	9626.44
416.119	9931.44
416.23	9771.44
416.34	9736.44
416.45	9741.44
416.561	10332.44
416.671	9827.44
416.782	9837.44
416.892	9932.44
417.002	9888.44
417.113	10085.44
417.223	10019.44
417.333	10141.44
417.444	10262.44
417.554	10376.44
417.664	10316.44
417.775	10175.44
417.885	10426.44
417.995	10411.44
418.106	10835.44
418.216	10583.44
418.326	10822.44
418.436	10918.44
418.547	11091.44
418.657	11140.44
418.767	11093.44
418.877	11145.44
418.987	11127.44
419.098	11032.44
419.208	11428.44
419.318	11254.44
419.428	11245.44
419.538	11173.44
419.648	11224.44
419.759	11318.44
419.869	11153.44
419.979	11202.44
420.089	11013.44
420.199	11290.44
420.309	11270.44
420.419	11116.44
420.529	11429.44
420.639	11568.44
420.749	11446.44
420.859	11485.44
420.969	11591.44
421.079	11717.44
421.189	11480.44
421.299	11474.44
421.409	11652.44
421.519	11706.44
421.629	11986.44
421.739	11858.44
421.849	11850.44
421.959	11953.44
422.069	12141.44
422.179	12070.44
422.289	12122.44
422.399	12398.44
422.509	12404.44
422.619	14537.44
422.729	12929.44
422.838	12608.44
422.948	12805.44
423.058	13025.44
423.168	12980.44
423.278	12980.44
423.388	13256.44
423.498	13597.44
423.607	13455.44
423.717	13805.44
423.827	13980.44
423.937	13721.44
424.046	13806.44
424.156	13952.44
424.266	13815.44
424.376	14193.44
424.485	14085.44
424.595	13984.44
424.705	14110.44
424.815	14109.44
424.924	14537.44
425.034	14084.44
425.144	14186.44
425.253	14278.44
425.363	14502.44
425.473	14537.44
425.582	14252.44
425.692	14465.44
425.801	14354.44
425.911	14537.44
426.021	14537.44
426.13	14537.44
426.24	14537.44
426.349	14537.44
426.459	14537.44
426.568	14537.44
426.678	14537.44
426.787	14537.44
426.897	14537.44
427.006	14537.44
427.116	14537.44
427.225	14537.44
427.335	14537.44
427.444	14537.44
427.554	14537.44
427.663	14537.44
427.773	14537.44
427.882	14537.44
427.992	14537.44
428.101	14537.44
428.21	14537.44
428.32	14537.44
428.429	14537.44
428.539	14537.44
428.648	14537.44
428.757	14537.44
428.867	14537.44
428.976	14537.44
429.085	14537.44
429.195	14537.44
429.304	14537.44
429.413	14537.44
429.523	14537.44
429.632	14537.44
429.741	14537.44
429.85	14537.44
429.96	14537.44
430.069	14537.44
430.178	14537.44
430.287	14537.44
430.397	14537.44
430.506	14537.44
430.615	14537.44
430.724	14537.44
430.833	14537.44
430.943	14537.44
431.052	14537.44
431.161	14537.44
431.27	14537.44
431.379	14537.44
431.488	14537.44
431.597	14537.44
431.706	14537.44
431.816	14537.44
431.925	14537.44
432.034	14537.44
432.143	14537.44
432.252	14537.44
432.361	14537.44
432.47	14537.44
432.579	14537.44
432.688	14537.44
432.797	14537.44
432.906	14537.44
433.015	14537.44
433.124	14537.44
433.233	14537.44
433.342	14537.44
433.451	14537.44
433.56	14537.44
433.669	14537.44
433.778	14537.44
433.886	14537.44
433.995	14537.44
434.104	14537.44
434.213	14537.44
434.322	14537.44
434.431	14537.44
434.54	14537.44
434.649	14537.44
434.757	14537.44
434.866	14537.44
434.975	14537.44
435.084	14537.44
435.193	14537.44
435.301	14537.44
435.41	14537.44
435.519	14537.44
435.628	14537.44
435.737	14537.44
435.845	14537.44
435.954	14537.44
436.063	14537.44
436.171	14537.44
436.28	14537.44
436.389	14537.44
436.498	14537.44
436.606	14537.44
436.715	14537.44
436.823	14537.44
436.932	14537.44
437.041	14537.44
437.149	14537.44
437.258	14537.44
437.367	14537.44
437.475	14537.44
437.584	14537.44
437.692	14537.44
437.801	14537.44
437.91	14537.44
438.018	14537.44
438.127	14537.44
438.235	14537.44
438.344	14537.44
438.452	14537.44
438.561	14537.44
438.669	14537.44
438.778	14537.44
438.886	14537.44
438.995	14537.44
439.103	14537.44
439.212	14537.44
439.32	14537.44
439.428	14537.44
439.537	14537.44
439.645	14537.44
439.754	14537.44
439.862	14537.44
439.97	14537.44
440.079	14537.44
440.187	14537.44
440.295	14537.44
440.404	14537.44
440.512	14537.44
440.62	14537.44
440.729	14537.44
440.837	14537.44
440.945	14537.44
441.054	14537.44
441.162	14537.44
441.27	14537.44
441.378	14537.44
441.487	14537.44
441.595	14537.44
441.703	14537.44
441.811	14537.44
441.92	14537.44
442.028	14537.44
442.136	14537.44
442.244	14537.44
442.352	14537.44
442.461	14537.44
442.569	14537.44
442.677	14537.44
442.785	14537.44
442.893	14537.44
443.001	14537.44
443.109	14537.44
443.217	14537.44
443.325	14537.44
443.434	14537.44
443.542	14537.44
443.65	14537.44
443.758	14537.44
443.866	14537.44
443.974	14537.44
444.082	14537.44
444.19	14537.44
444.298	14537.44
444.406	14537.44
444.514	14537.44
444.622	14537.44
444.73	14537.44
444.838	14537.44
444.946	14537.44
445.054	14537.44
445.161	14537.44
445.269	14537.44
445.377	14537.44
445.485	14537.44
445.593	14537.44
445.701	14537.44
445.809	14537.44
445.917	14537.44
446.025	14537.44
446.132	14537.44
446.24	14537.44
446.348	14537.44
446.456	14537.44
446.564	14537.44
446.671	14537.44
446.779	14537.44
446.887	14537.44
446.995	14537.44
447.102	14537.44
447.21	14537.44
447.318	14537.44
447.426	14537.44
447.533	14537.44
447.641	14537.44
447.749	14537.44
447.856	14537.44
447.964	14537.44
448.072	14537.44
448.179	14537.44
448.287	14537.44
448.395	14537.44
448.502	14537.44
448.61	14537.44
448.718	14537.44
448.825	14537.44
448.933	14537.44
449.04	14537.44
449.148	14537.44
449.256	14537.44
449.363	14537.44
449.471	14537.44
449.578	14537.44
449.686	14537.44
449.793	14537.44
449.901	14537.44
450.008	14537.44
450.116	14537.44
450.223	14537.44
450.331	14537.44
450.438	14537.44
450.546	14537.44
450.653	14537.44
450.76	14537.44
450.868	14537.44
450.975	14537.44
451.083	14537.44
451.19	14537.44
451.297	14537.44
451.405	14537.44
451.512	14537.44
451.619	14537.44
451.727	14537.44
451.834	14537.44
451.941	14537.44
452.049	14537.44
452.156	14537.44
452.263	14537.44
452.371	14537.44
452.478	14537.44
452.585	14537.44
452.692	14537.44
452.8	14537.44
452.907	14537.44
453.014	14537.44
453.121	14537.44
453.229	14537.44
453.336	14537.44
453.443	14537.44
453.55	14537.44
453.657	14537.44
453.765	14537.44
453.872	14537.44
453.979	14537.44
454.086	14537.44
454.193	14537.44
454.3	14537.44
454.407	14537.44
454.514	14537.44
454.621	14537.44
454.729	14537.44
454.836	14537.44
454.943	14537.44
455.05	14537.44
455.157	14537.44
455.264	14537.44
455.371	14537.44
455.478	14537.44
455.585	14537.44
455.692	14537.44
455.799	14537.44
455.906	14537.44
456.013	14537.44
456.12	14537.44
456.227	14537.44
456.334	14537.44
456.44	14537.44
456.547	14537.44
456.654	14537.44
456.761	14537.44
456.868	14537.44
456.975	14537.44
457.082	14537.44
457.189	14537.44
457.296	14537.44
457.402	14537.44
457.509	14537.44
457.616	14537.44
457.723	14537.44
457.83	14537.44
457.936	14537.44
458.043	14537.44
458.15	14537.44
458.257	14537.44
458.363	14537.44
458.47	14537.44
458.577	14537.44
458.684	14537.44
458.79	14537.44
458.897	14537.44
459.004	14537.44
459.11	14537.44
459.217	14537.44
459.324	14537.44
459.43	14537.44
459.537	14537.44
459.644	14537.44
459.75	14537.44
459.857	14537.44
459.964	14537.44
460.07	14537.44
460.177	14537.44
460.283	14537.44
460.39	14537.44
460.496	14537.44
460.603	14537.44
460.71	14537.44
460.816	14537.44
460.923	14537.44
461.029	14537.44
461.136	14537.44
461.242	14537.44
461.349	14537.44
461.455	14537.44
461.562	14537.44
461.668	14537.44
461.774	14537.44
461.881	14537.44
461.987	14537.44
462.094	14537.44
462.2	14537.44
462.307	14537.44
462.413	14537.44
462.519	14537.44
462.626	14537.44
462.732	14537.44
462.838	14537.44
462.945	14537.44
463.051	14537.44
463.157	14537.44
463.264	14537.44
463.37	14537.44
463.476	14537.44
463.583	14537.44
463.689	14537.44
463.795	14537.44
463.901	14537.44
464.008	14537.44
464.114	14537.44
464.22	14537.44
464.326	14537.44
464.433	14537.44
464.539	14537.44
464.645	14537.44
464.751	14537.44
464.857	14537.44
464.963	14537.44
465.07	14537.44
465.176	14537.44
465.282	14537.44
465.388	14537.44
465.494	14537.44
465.6	14537.44
465.706	14537.44
465.812	14537.44
465.918	14537.44
466.024	14537.44
466.131	14537.44
466.237	14537.44
466.343	14537.44
466.449	14537.44
466.555	14537.44
466.661	14537.44
466.767	14537.44
466.873	14537.44
466.979	14537.44
467.085	14537.44
467.191	14537.44
467.296	14537.44
467.402	14537.44
467.508	14537.44
467.614	14537.44
467.72	14537.44
467.826	14537.44
467.932	14537.44
468.038	14537.44
468.144	14537.44
468.25	14537.44
468.355	14537.44
468.461	14537.44
468.567	14537.44
468.673	14537.44
468.779	14537.44
468.885	14537.44
468.99	14537.44
469.096	14537.44
469.202	14537.44
469.308	14537.44
469.413	14537.44
469.519	14537.44
469.625	14537.44
469.731	14537.44
469.836	14537.44
469.942	14537.44
470.048	14537.44
470.153	14537.44
470.259	14537.44
470.365	14537.44
470.47	14537.44
470.576	14537.44
470.682	14537.44
470.787	14537.44
470.893	14537.44
470.999	14537.44
471.104	14537.44
471.21	14537.44
471.315	14537.44
471.421	14537.44
471.527	14537.44
471.632	14537.44
471.738	14537.44
471.843	14537.44
471.949	14537.44
472.054	14537.44
472.16	14537.44
472.265	14537.44
472.371	14537.44
472.476	14537.44
472.582	14537.44
472.687	14537.44
472.793	14537.44
472.898	14537.44
473.003	14537.44
473.109	14537.44
473.214	14537.44
473.32	14537.44
473.425	14537.44
473.53	14537.44
473.636	14537.44
473.741	14537.44
473.847	14537.44
473.952	14537.44
474.057	14537.44
474.163	14537.44
474.268	14537.44
474.373	14537.44
474.478	14537.44
474.584	14537.44
474.689	14537.44
474.794	14537.44
474.9	14537.44
475.005	14537.44
475.11	14537.44
475.215	14537.44
475.321	14537.44
475.426	14537.44
475.531	14537.44
475.636	14537.44
475.741	14537.44
475.846	14537.44
475.952	14537.44
476.057	14537.44
476.162	14537.44
476.267	14537.44
476.372	14537.44
476.477	14537.44
476.582	14537.44
476.687	14537.44
476.793	14537.44
476.898	14537.44
477.003	14537.44
477.108	14537.44
477.213	14537.44
477.318	14537.44
477.423	14537.44
477.528	14537.44
477.633	14537.44
477.738	14537.44
477.843	14537.44
477.948	14537.44
478.053	14537.44
478.158	14537.44
478.263	14537.44
478.368	14537.44
478.473	14537.44
478.578	14537.44
478.682	14537.44
478.787	14537.44
478.892	14537.44
478.997	14537.44
479.102	14537.44
479.207	14537.44
479.312	14537.44
479.417	14537.44
479.521	14537.44
479.626	14537.44
479.731	14537.44
479.836	14537.44
479.941	14537.44
480.045	14537.44
480.15	14537.44
480.255	14537.44
480.36	14537.44
480.465	14537.44
480.569	14537.44
480.674	14537.44
480.779	14537.44
480.883	14537.44
480.988	14537.44
481.093	14537.44
481.197	14537.44
481.302	14537.44
481.407	14537.44
481.511	14537.44
481.616	14537.44
481.721	14537.44
481.825	14537.44
481.93	14537.44
482.035	14537.44
482.139	14537.44
482.244	14537.44
482.348	14537.44
482.453	14537.44
482.557	14537.44
482.662	14537.44
482.767	14537.44
482.871	14537.44
482.976	14537.44
483.08	14537.44
483.185	14537.44
483.289	14537.44
483.394	14537.44
483.498	14537.44
483.603	14537.44
483.707	14537.44
483.811	14537.44
483.916	14537.44
484.02	14537.44
484.125	14537.44
484.229	14537.44
484.333	14537.44
484.438	14537.44
484.542	14537.44
484.647	14537.44
484.751	14537.44
484.855	14537.44
484.96	14537.44
485.064	14537.44
485.168	14537.44
485.273	14537.44
485.377	14537.44
485.481	14537.44
485.585	14537.44
485.69	14537.44
485.794	14537.44
485.898	14537.44
486.002	14537.44
486.107	14537.44
486.211	14537.44
486.315	14537.44
486.419	14537.44
486.524	14537.44
486.628	14537.44
486.732	14537.44
486.836	14537.44
486.94	14537.44
487.044	14537.44
487.148	14537.44
487.253	14537.44
487.357	14537.44
487.461	14537.44
487.565	14537.44
487.669	14537.44
487.773	14537.44
487.877	14537.44
487.981	14537.44
488.085	14537.44
488.189	14537.44
488.293	14537.44
488.397	14537.44
488.501	14537.44
488.605	14537.44
488.709	14537.44
488.813	14537.44
488.917	14537.44
489.021	14537.44
489.125	14537.44
489.229	14537.44
489.333	14537.44
489.437	14537.44
489.541	14537.44
489.645	14537.44
489.749	14537.44
489.853	14537.44
489.956	14537.44
490.06	14537.44
490.164	14537.44
490.268	14537.44
490.372	14537.44
490.476	14537.44
490.579	14537.44
490.683	14537.44
490.787	14537.44
490.891	14537.44
490.995	14537.44
491.098	14537.44
491.202	14537.44
491.306	14537.44
491.41	14537.44
491.513	14537.44
491.617	14537.44
491.721	14537.44
491.824	14537.44
491.928	14537.44
492.032	14537.44
492.136	14537.44
492.239	14537.44
492.343	14537.44
492.446	14537.44
492.55	14537.44
492.654	14537.44
492.757	14537.44
492.861	14537.44
492.965	14537.44
493.068	14537.44
493.172	14537.44
493.275	14537.44
493.379	14537.44
493.482	14537.44
493.586	14537.44
493.689	14537.44
493.793	14537.44
493.896	14537.44
494	14537.44
494.103	14537.44
494.207	14537.44
494.31	14537.44
494.414	14537.44
494.517	14537.44
494.621	14537.44
494.724	14537.44
494.828	14537.44
494.931	14537.44
495.034	14537.44
495.138	14537.44
495.241	14537.44
495.345	14537.44
495.448	14537.44
495.551	14537.44
495.655	14537.44
495.758	14537.44
495.861	14537.44
495.965	14537.44
496.068	14537.44
496.171	14537.44
496.274	14537.44
496.378	14537.44
496.481	14537.44
496.584	14537.44
496.687	14537.44
496.791	14537.44
496.894	14537.44
496.997	14537.44
497.1	14537.44
497.204	14537.44
497.307	14537.44
497.41	14537.44
497.513	14537.44
497.616	14537.44
497.719	14537.44
497.823	14537.44
497.926	14537.44
498.029	14537.44
498.132	14537.44
498.235	14537.44
498.338	14537.44
498.441	14537.44
498.544	14537.44
498.647	14537.44
498.75	14537.44
498.853	14537.44
498.956	14537.44
499.059	14537.44
499.163	14537.44
499.266	14537.44
499.369	14537.44
499.471	14537.44
499.574	14537.44
499.677	14537.44
499.78	14537.44
499.883	14537.44
499.986	14537.44
500.089	14537.44
500.192	14537.44
500.295	14537.44
500.398	14537.44
500.501	14537.44
500.604	14537.44
500.707	14537.44
500.809	14537.44
500.912	14537.44
501.015	14537.44
501.118	14537.44
501.221	14537.44
501.324	14537.44
501.426	14537.44
501.529	14537.44
501.632	14537.44
501.735	14537.44
501.837	14537.44
501.94	14537.44
502.043	14537.44
502.146	14537.44
502.248	14537.44
502.351	14537.44
502.454	14537.44
502.557	14537.44
502.659	14537.44
502.762	14537.44
502.865	14537.44
502.967	14537.44
503.07	14537.44
503.173	14537.44
503.275	14537.44
503.378	14537.44
503.48	14537.44
503.583	14537.44
503.686	14537.44
503.788	14537.44
503.891	14537.44
503.993	14537.44
504.096	14537.44
504.198	14537.44
504.301	14537.44
504.403	14537.44
504.506	14537.44
504.608	14537.44
504.711	14537.44
504.813	14537.44
504.916	14537.44
505.018	14537.44
505.121	14537.44
505.223	14537.44
505.326	14537.44
505.428	14537.44
505.531	14537.44
505.633	14537.44
505.735	14537.44
505.838	14537.44
505.94	14537.44
506.042	14537.44
506.145	14537.44
506.247	14537.44
506.35	14537.44
506.452	14537.44
506.554	14537.44
506.656	14537.44
506.759	14537.44
506.861	14537.44
506.963	14537.44
507.066	14537.44
507.168	14537.44
507.27	14537.44
507.372	14537.44
507.475	14537.44
507.577	14537.44
507.679	14537.44
507.781	14537.44
507.883	14537.44
507.986	14537.44
508.088	14537.44
508.19	14537.44
508.292	14537.44
508.394	14537.44
508.496	14537.44
508.598	14537.44
508.701	14537.44
508.803	14537.44
508.905	14537.44
509.007	14537.44
509.109	14537.44
509.211	14537.44
509.313	14537.44
509.415	14537.44
509.517	14537.44
509.619	14537.44
509.721	14537.44
509.823	14537.44
509.925	14537.44
510.027	14537.44
510.129	14537.44
510.231	14537.44
510.333	14537.44
510.435	14537.44
510.537	14537.44
510.639	14537.44
510.741	14537.44
510.843	14537.44
510.945	14537.44
511.047	14537.44
511.148	14537.44
511.25	14537.44
511.352	14537.44
511.454	14537.44
511.556	14537.44
511.658	14537.44
511.76	14537.44
511.861	14537.44
511.963	14537.44
512.065	14537.44
512.167	14537.44
512.268	14537.44
512.37	14537.44
512.472	14537.44
512.574	14537.44
512.676	14537.44
512.777	14537.44
512.879	14537.44
512.981	14537.44
513.082	14537.44
513.184	14537.44
513.286	14537.44
513.387	14537.44
513.489	14537.44
513.591	14537.44
513.692	14537.44
513.794	14537.44
513.896	14537.44
513.997	14537.44
514.099	14537.44
514.2	14537.44
514.302	14537.44
514.404	14537.44
514.505	14537.44
514.607	14537.44
514.708	14537.44
514.81	14537.44
514.911	14537.44
515.013	14537.44
515.114	14537.44
515.216	14537.44
515.317	14537.44
515.419	14537.44
515.52	14537.44
515.622	14537.44
515.723	14537.44
515.825	14537.44
515.926	14537.44
516.027	14537.44
516.129	14537.44
516.23	14537.44
516.332	14537.44
516.433	14537.44
516.534	14537.44
516.636	14537.44
516.737	14537.44
516.838	14537.44
516.94	14537.44
517.041	14537.44
517.142	14537.44
517.244	14537.44
517.345	14537.44
517.446	14537.44
517.547	14537.44
517.649	14537.44
517.75	14537.44
517.851	14537.44
517.952	14537.44
518.054	14537.44
518.155	14537.44
518.256	14537.44
518.357	14537.44
518.458	14537.44
518.56	14537.44
518.661	14537.44
518.762	14537.44
518.863	14537.44
518.964	14537.44
519.065	14537.44
519.166	14537.44
519.268	14537.44
519.369	14537.44
519.47	14537.44
519.571	14537.44
519.672	14537.44
519.773	14537.44
519.874	14537.44
519.975	14537.44
520.076	14537.44
520.177	14537.44
520.278	14537.44
520.379	14537.44
520.48	14537.44
520.581	14537.44
520.682	14537.44
520.783	14537.44
520.884	14537.44
520.985	14537.44
521.086	14537.44
521.187	14537.44
521.288	14537.44
521.389	14537.44
521.489	14537.44
521.59	14537.44
521.691	14537.44
521.792	14537.44
521.893	14537.44
521.994	14537.44
522.095	14537.44
522.195	14537.44
522.296	14537.44
522.397	14537.44
522.498	14537.44
522.599	14537.44
522.699	14537.44
522.8	14537.44
522.901	14537.44
523.002	14537.44
523.102	14537.44
523.203	14537.44
523.304	14537.44
523.405	14537.44
523.505	14537.44
523.606	14537.44
523.707	14537.44
523.807	14537.44
523.908	14537.44
524.009	14537.44
524.109	14537.44
524.21	14537.44
524.31	14537.44
524.411	14537.44
524.512	14537.44
524.612	14537.44
524.713	14537.44
524.813	14537.44
524.914	14537.44
525.014	14537.44
525.115	14537.44
525.216	14537.44
525.316	14537.44
525.417	14537.44
525.517	14537.44
525.618	14537.44
525.718	14537.44
525.819	14537.44
525.919	14537.44
526.019	14537.44
526.12	14537.44
526.22	14537.44
526.321	14537.44
526.421	14537.44
526.522	14537.44
526.622	14537.44
526.722	14537.44
526.823	14537.44
526.923	14537.44
527.023	14537.44
527.124	14537.44
527.224	14537.44
527.324	14537.44
527.425	14537.44
527.525	14537.44
527.625	14537.44
527.726	14537.44
527.826	14537.44
527.926	14537.44
528.026	14537.44
528.127	14537.44
528.227	14537.44
528.327	14537.44
528.427	14537.44
528.528	14537.44
528.628	14537.44
528.728	14537.44
528.828	14537.44
528.928	14537.44
529.029	14537.44
529.129	14537.44
529.229	14537.44
529.329	14537.44
529.429	14537.44
529.529	14537.44
529.629	14537.44
529.729	14537.44
529.829	14537.44
529.93	14537.44
530.03	14537.44
530.13	14537.44
530.23	14537.44
530.33	14537.44
530.43	14537.44
530.53	14537.44
530.63	14537.44
530.73	14537.44
530.83	14537.44
530.93	14537.44
531.03	14537.44
531.13	14537.44
531.23	14537.44
531.33	14537.44
531.429	14537.44
531.529	14537.44
531.629	14537.44
531.729	14537.44
531.829	14537.44
531.929	14537.44
532.029	14537.44
532.129	14537.44
532.229	14537.44
532.328	14537.44
532.428	14537.44
532.528	14537.44
532.628	14537.44
532.728	14537.44
532.827	14537.44
532.927	14537.44
533.027	14537.44
533.127	14537.44
533.227	14537.44
533.326	14537.44
533.426	14537.44
533.526	14537.44
533.625	14537.44
533.725	14537.44
533.825	14537.44
533.924	14537.44
534.024	14537.44
534.124	14537.44
534.223	14537.44
534.323	14537.44
534.423	14537.44
534.522	14537.44
534.622	14537.44
534.722	14537.44
534.821	14537.44
534.921	14537.44
535.02	14537.44
535.12	14537.44
535.219	14537.44
535.319	14537.44
535.419	14537.44
535.518	14537.44
535.618	14537.44
535.717	14537.44
535.817	14537.44
535.916	14487.44
536.016	14534.44
536.115	14509.44
536.215	14537.44
536.314	14199.44
536.413	14310.44
536.513	14263.44
536.612	14225.44
536.712	14041.44
536.811	14144.44
536.91	14016.44
537.01	14108.44
537.109	14226.44
537.209	13940.44
537.308	13712.44
537.407	13927.44
537.507	13850.44
537.606	13764.44
537.705	13813.44
537.805	13718.44
537.904	13460.44
538.003	13515.44
538.102	13758.44
538.202	13669.44
538.301	13632.44
538.4	13682.44
538.499	13506.44
538.599	13479.44
538.698	13772.44
538.797	13480.44
538.896	13514.44
538.995	13344.44
539.095	13400.44
539.194	13528.44
539.293	13353.44
539.392	13176.44
539.491	12970.44
539.59	13041.44
539.689	13156.44
539.789	12883.44
539.888	12696.44
539.987	12974.44
540.086	12783.44
540.185	12946.44
540.284	12832.44
540.383	12887.44
540.482	12803.44
540.581	12876.44
540.68	12828.44
540.779	12795.44
540.878	12640.44
540.977	12719.44
541.076	12665.44
541.175	12589.44
541.274	12887.44
541.373	12746.44
541.472	12756.44
541.571	12557.44
541.67	13797.44
541.769	12606.44
541.868	12625.44
541.966	12503.44
542.065	12496.44
542.164	12368.44
542.263	12249.44
542.362	12154.44
542.461	12466.44
542.56	12306.44
542.658	12292.44
542.757	12103.44
542.856	12077.44
542.955	12173.44
543.054	12052.44
543.152	12306.44
543.251	12109.44
543.35	12183.44
543.449	12162.44
543.547	12076.44
543.646	12166.44
543.745	12239.44
543.843	12267.44
543.942	12181.44
544.041	12050.44
544.14	12280.44
544.238	12302.44
544.337	12308.44
544.436	12269.44
544.534	12455.44
544.633	12312.44
544.731	12235.44
544.83	12379.44
544.929	12358.44
545.027	12394.44
545.126	12391.44
545.224	12378.44
545.323	12465.44
545.421	12483.44
545.52	12434.44
545.619	12475.44
545.717	12416.44
545.816	12342.44
545.914	12352.44
546.013	12510.44
546.111	12607.44
546.209	12243.44
546.308	12258.44
546.406	12368.44
546.505	12411.44
546.603	12285.44
546.702	12088.44
546.8	12187.44
546.899	12063.44
546.997	12215.44
547.095	12289.44
547.194	12262.44
547.292	12128.44
547.39	12403.44
547.489	12243.44
547.587	12492.44
547.685	12308.44
547.784	12548.44
547.882	12380.44
547.98	12252.44
548.079	12418.44
548.177	12253.44
548.275	12206.44
548.373	12431.44
548.472	12226.44
548.57	12286.44
548.668	12449.44
548.766	12112.44
548.864	12453.44
548.963	12292.44
549.061	12430.44
549.159	12313.44
549.257	12483.44
549.355	12528.44
549.454	12534.44
549.552	12690.44
549.65	12610.44
549.748	12539.44
549.846	12359.44
549.944	12379.44
550.042	12175.44
550.14	12188.44
550.238	12271.44
550.336	12133.44
550.434	11964.44
550.532	12203.44
550.631	12148.44
550.729	12126.44
550.827	12127.44
550.925	11931.44
551.023	12000.44
551.121	11875.44
551.218	11988.44
551.316	11776.44
551.414	11935.44
551.512	11882.44
551.61	12147.44
551.708	12078.44
551.806	12285.44
551.904	12107.44
552.002	12314.44
552.1	12439.44
552.198	12529.44
552.296	12643.44
552.393	12814.44
552.491	13126.44
552.589	13112.44
552.687	13200.44
552.785	13189.44
552.882	13418.44
552.98	13711.44
553.078	13577.44
553.176	13584.44
553.274	13619.44
553.371	13497.44
553.469	13467.44
553.567	13404.44
553.665	13241.44
553.762	13563.44
553.86	12913.44
553.958	12994.44
554.055	12829.44
554.153	12912.44
554.251	12583.44
554.348	12544.44
554.446	12296.44
554.544	12440.44
554.641	12694.44
554.739	12216.44
554.837	12143.44
554.934	12313.44
555.032	12074.44
555.129	11792.44
555.227	12222.44
555.324	14537.44
555.422	11942.44
555.519	11649.44
555.617	11482.44
555.715	11302.44
555.812	11777.44
555.91	11315.44
556.007	11372.44
556.105	11247.44
556.202	11388.44
556.299	11194.44
556.397	11241.44
556.494	11068.44
556.592	11136.44
556.689	11183.44
556.787	11155.44
556.884	11103.44
556.981	11124.44
557.079	10990.44
557.176	11121.44
557.273	11167.44
557.371	11247.44
557.468	11116.44
557.566	11196.44
557.663	10953.44
557.76	11075.44
557.857	11021.44
557.955	11061.44
558.052	11022.44
558.149	11204.44
558.247	11059.44
558.344	11116.44
558.441	10866.44
558.538	10988.44
558.636	11003.44
558.733	11141.44
558.83	11118.44
558.927	10992.44
559.024	10959.44
559.122	11013.44
559.219	11035.44
559.316	11027.44
559.413	11235.44
559.51	11080.44
559.607	10975.44
559.704	11104.44
559.801	11177.44
559.899	11085.44
559.996	11266.44
560.093	11338.44
560.19	11123.44
560.287	11200.44
560.384	11364.44
560.481	11176.44
560.578	11166.44
560.675	11324.44
560.772	11239.44
560.869	11114.44
560.966	11474.44
561.063	11163.44
561.16	11362.44
561.257	11375.44
561.354	11277.44
561.451	11239.44
561.548	11400.44
561.645	11626.44
561.742	11371.44
561.838	11289.44
561.935	11341.44
562.032	11481.44
562.129	11370.44
562.226	11420.44
562.323	11526.44
562.42	11523.44
562.516	11575.44
562.613	11422.44
562.71	11436.44
562.807	12342.44
562.904	11536.44
563	11633.44
563.097	11677.44
563.194	11874.44
563.291	11740.44
563.387	11662.44
563.484	11868.44
563.581	11824.44
563.678	11898.44
563.774	12388.44
563.871	12078.44
563.968	11995.44
564.064	12229.44
564.161	12226.44
564.258	12326.44
564.354	12549.44
564.451	12597.44
564.548	12559.44
564.644	12659.44
564.741	12793.44
564.837	12733.44
564.934	12994.44
565.031	13064.44
565.127	13337.44
565.224	13643.44
565.32	13861.44
565.417	13884.44
565.513	14239.44
565.61	14398.44
565.706	14537.44
565.803	14537.44
565.899	14537.44
565.996	14537.44
566.092	14537.44
566.189	14537.44
566.285	14537.44
566.382	14537.44
566.478	14537.44
566.574	14537.44
566.671	14537.44
566.767	14537.44
566.864	14537.44
566.96	14537.44
567.056	14537.44
567.153	14537.44
567.249	14537.44
567.345	14537.44
567.442	14537.44
567.538	14537.44
567.634	14537.44
567.731	14537.44
567.827	14537.44
567.923	14537.44
568.019	14537.44
568.116	14537.44
568.212	14537.44
568.308	14537.44
568.404	14537.44
568.501	14537.44
568.597	14537.44
568.693	14537.44
568.789	14537.44
568.885	14537.44
568.982	14537.44
569.078	14314.44
569.174	14099.44
569.27	13672.44
569.366	13574.44
569.462	13342.44
569.558	13190.44
569.655	12943.44
569.751	12741.44
569.847	12550.44
569.943	12513.44
570.039	12292.44
570.135	12708.44
570.231	12195.44
570.327	12449.44
570.423	12280.44
570.519	12450.44
570.615	12299.44
570.711	12436.44
570.807	12482.44
570.903	12349.44
570.999	12363.44
571.095	12238.44
571.191	12049.44
571.287	11985.44
571.383	11729.44
571.479	11560.44
571.574	11483.44
571.67	11099.44
571.766	11087.44
571.862	10835.44
571.958	10832.44
572.054	10658.44
572.15	10552.44
572.246	10475.44
572.341	10521.44
572.437	10155.44
572.533	10353.44
572.629	10255.44
572.725	10103.44
572.82	10004.44
572.916	10211.44
573.012	9896.44
573.108	9843.44
573.203	9744.44
573.299	9789.44
573.395	9542.44
573.49	9644.44
573.586	9722.44
573.682	9567.44
573.778	9677.44
573.873	9507.44
573.969	9587.44
574.065	9596.44
574.16	9581.44
574.256	9416.44
574.351	9580.44
574.447	9499.44
574.543	9425.44
574.638	9336.44
574.734	9564.44
574.829	9606.44
574.925	9396.44
575.02	9168.44
575.116	9263.44
575.212	9278.44
575.307	9281.44
575.403	8939.44
575.498	9024.44
575.594	9025.44
575.689	8867.44
575.784	8802.44
575.88	8784.44
575.975	8882.44
576.071	8732.44
576.166	8596.44
576.262	8768.44
576.357	8598.44
576.452	8805.44
576.548	8591.44
576.643	8515.44
576.739	8531.44
576.834	8438.44
576.929	8562.44
577.025	8972.44
577.12	8263.44
577.215	8326.44
577.311	8223.44
577.406	8227.44
577.501	8315.44
577.597	8046.44
577.692	8255.44
577.787	8234.44
577.882	8007.44
577.978	8011.44
578.073	7966.44
578.168	7793.44
578.263	7796.44
578.358	7871.44
578.454	7700.44
578.549	7656.44
578.644	7618.44
578.739	7667.44
578.834	7468.44
578.929	7327.44
579.025	7544.44
579.12	7624.44
579.215	7598.44
579.31	7614.44
579.405	7243.44
579.5	7291.44
579.595	7330.44
579.69	7272.44
579.785	7163.44
579.88	7140.44
579.975	7307.44
580.07	7074.44
580.165	7104.44
580.26	7359.44
580.355	7071.44
580.45	7107.44
580.545	7023.44
580.64	7044.44
580.735	7049.44
580.83	6913.44
580.925	6867.44
581.02	6819.44
581.115	6847.44
581.21	6884.44
581.305	6817.44
581.4	6787.44
581.495	6929.44
581.589	6808.44
581.684	6651.44
581.779	6842.44
581.874	6751.44
581.969	6768.44
582.064	6529.44
582.158	6597.44
582.253	6539.44
582.348	6469.44
582.443	6583.44
582.537	6541.44
582.632	6663.44
582.727	6628.44
582.822	6419.44
582.916	6356.44
583.011	6493.44
583.106	6394.44
583.201	6371.44
583.295	6436.44
583.39	6327.44
583.485	6231.44
583.579	8437.44
583.674	6402.44
583.769	6331.44
583.863	6176.44
583.958	6206.44
584.052	6010.44
584.147	6031.44
584.242	5955.44
584.336	6109.44
584.431	6149.44
584.525	6079.44
584.62	6206.44
584.714	6079.44
584.809	5993.44
584.903	6116.44
584.998	5904.44
585.092	5902.44
585.187	5996.44
585.281	5862.44
585.376	5948.44
585.47	6000.44
585.565	5808.44
585.659	5805.44
585.754	5864.44
585.848	5917.44
585.942	5698.44
586.037	5723.44
586.131	8066.44
586.226	5857.44
586.32	5815.44
586.414	5626.44
586.509	5643.44
586.603	5744.44
586.697	5819.44
586.792	5668.44
586.886	5576.44
586.98	5726.44
587.075	5609.44
587.169	5596.44
587.263	5820.44
587.357	5717.44
587.452	5458.44
587.546	5547.44
587.64	5504.44
587.734	5489.44
587.829	5595.44
587.923	5435.44
588.017	5484.44
588.111	5456.44
588.205	5590.44
588.3	5487.44
588.394	5419.44
588.488	5474.44
588.582	5645.44
588.676	5782.44
588.77	7042.44
588.864	10559.44
588.958	10849.44
589.052	9142.44
589.147	7096.44
589.241	6173.44
589.335	6005.44
589.429	8117.44
589.523	9017.44
589.617	8255.44
589.711	6834.44
589.805	5955.44
589.899	5644.44
589.993	5490.44
590.087	5411.44
590.181	5328.44
590.275	5409.44
590.369	5474.44
590.462	5291.44
590.556	5241.44
590.65	5460.44
590.744	5286.44
590.838	5357.44
590.932	5359.44
591.026	5466.44
591.12	5560.44
591.214	5404.44
591.307	5435.44
591.401	5427.44
591.495	5537.44
591.589	5559.44
591.683	5516.44
591.777	5618.44
591.87	5941.44
591.964	5693.44
592.058	5764.44
592.152	5794.44
592.245	5762.44
592.339	5977.44
592.433	6065.44
592.527	6144.44
592.62	6123.44
592.714	6184.44
592.808	6363.44
592.901	6235.44
592.995	6283.44
593.089	6620.44
593.182	6497.44
593.276	6355.44
593.37	6438.44
593.463	6352.44
593.557	6275.44
593.65	6244.44
593.744	6463.44
593.837	6518.44
593.931	6497.44
594.025	10304.44
594.118	6640.44
594.212	6262.44
594.305	6320.44
594.399	6206.44
594.492	6402.44
594.586	5936.44
594.679	5808.44
594.773	5741.44
594.866	5724.44
594.96	5726.44
595.053	5492.44
595.146	5486.44
595.24	5400.44
595.333	5243.44
595.427	5113.44
595.52	5112.44
595.614	5250.44
595.707	5033.44
595.8	4907.44
595.894	4828.44
595.987	4766.44
596.08	4726.44
596.174	5052.44
596.267	4747.44
596.36	4785.44
596.454	4860.44
596.547	4664.44
596.64	4485.44
596.733	4562.44
596.827	4500.44
596.92	4420.44
597.013	4330.44
597.106	4350.44
597.2	4224.44
597.293	4200.44
597.386	4501.44
597.479	4340.44
597.572	4249.44
597.666	4243.44
597.759	4078.44
597.852	4175.44
597.945	4181.44
598.038	4146.44
598.131	4056.44
598.224	4101.44
598.317	4132.44
598.411	4053.44
598.504	4137.44
598.597	4206.44
598.69	4128.44
598.783	3998.44
598.876	4217.44
598.969	4144.44
599.062	4066.44
599.155	4110.44
599.248	4036.44
599.341	4103.44
599.434	4010.44
599.527	4044.44
599.62	3956.44
599.713	3992.44
599.806	4034.44
599.899	4082.44
599.991	3887.44
600.084	4282.44
600.177	3972.44
600.27	3963.44
600.363	4097.44
600.456	3851.44
600.549	4029.44
600.642	3832.44
600.734	3901.44
600.827	3877.44
600.92	3969.44
601.013	3889.44
601.106	3988.44
601.199	3870.44
601.291	3949.44
601.384	3849.44
601.477	4002.44
601.57	3941.44
601.662	3815.44
601.755	3832.44
601.848	3921.44
601.94	3765.44
602.033	3952.44
602.126	3870.44
602.219	3797.44
602.311	3866.44
602.404	3772.44
602.497	3891.44
602.589	3798.44
602.682	3718.44
602.774	3810.44
602.867	3668.44
602.96	3753.44
603.052	3814.44
603.145	3725.44
603.237	3703.44
603.33	3762.44
603.422	3836.44
603.515	3708.44
603.608	3745.44
603.7	3760.44
603.793	3688.44
603.885	3742.44
603.978	3758.44
604.07	3676.44
604.163	3590.44
604.255	3805.44
604.347	3560.44
604.44	3522.44
604.532	3654.44
604.625	3605.44
604.717	3604.44
604.81	3685.44
604.902	3650.44
604.994	3504.44
605.087	3572.44
605.179	3614.44
605.271	3619.44
605.364	3644.44
605.456	3639.44
605.548	3596.44
605.641	3677.44
605.733	3633.44
605.825	3579.44
605.918	3518.44
606.01	3740.44
606.102	3949.44
606.194	3565.44
606.287	3621.44
606.379	3582.44
606.471	3584.44
606.563	3577.44
606.655	3675.44
606.748	3580.44
606.84	3576.44
606.932	3690.44
607.024	3468.44
607.116	3521.44
607.208	3489.44
607.301	3570.44
607.393	3535.44
607.485	3544.44
607.577	3527.44
607.669	3565.44
607.761	3585.44
607.853	3763.44
607.945	3489.44
608.037	3422.44
608.129	3534.44
608.221	3400.44
608.313	3408.44
608.405	3587.44
608.497	3547.44
608.589	3360.44
608.681	3499.44
608.773	3561.44
608.865	3444.44
608.957	3510.44
609.049	3400.44
609.141	3508.44
609.233	3488.44
609.325	3417.44
609.417	3351.44
609.509	3462.44
609.601	3547.44
609.693	3570.44
609.784	3410.44
609.876	3389.44
609.968	3445.44
610.06	5601.44
610.152	3644.44
610.244	3739.44
610.335	3356.44
610.427	3331.44
610.519	3344.44
610.611	3284.44
610.702	3310.44
610.794	3293.44
610.886	3316.44
610.978	3233.44
611.069	3598.44
611.161	3165.44
611.253	3152.44
611.344	3041.44
611.436	3062.44
611.528	3023.44
611.62	2915.44
611.711	2976.44
611.803	2864.44
611.894	2791.44
611.986	2860.44
612.078	2817.44
612.169	2716.44
612.261	2740.44
612.352	2701.44
612.444	2557.44
612.536	2726.44
612.627	2593.44
612.719	2501.44
612.81	2513.44
612.902	2403.44
612.993	2340.44
613.085	2424.44
613.176	2369.44
613.268	2396.44
613.359	2293.44
613.451	2208.44
613.542	2305.44
613.634	2149.44
613.725	2208.44
613.816	2227.44
613.908	1934.44
613.999	2006.44
614.091	1935.44
614.182	1816.44
614.273	1961.44
614.365	1893.44
614.456	1774.44
614.547	1794.44
614.639	1772.44
614.73	1760.44
614.821	1762.44
614.913	1639.44
615.004	1549.44
615.095	1507.44
615.187	1431.44
