Data from sinsal_HRC06701__4__65.txt Node

Date: Thu Apr 18 01:41:07 CDT 2024
User: Estudiantes 2
Spectrometer: HR+C0670
Trigger mode: 4
Integration Time (sec): 1.000000E0
Scans to average: 1
Electric dark correction enabled: true
Nonlinearity correction enabled: false
Boxcar width: 0
XAxis mode: Wavelengths
Number of Pixels in Spectrum: 2048
>>>>>Begin Spectral Data<<<<<
407.81	-60.38
407.921	-60.38
408.032	-60.38
408.143	-124.38
408.254	-120.38
408.365	21.62
408.476	227.62
408.587	-48.38
408.699	-24.38
408.81	21.62
408.921	-22.38
409.032	-34.38
409.143	64.62
409.254	12.62
409.365	57.62
409.476	0.62
409.587	-17.38
409.698	45.62
409.809	108.62
409.92	-16.38
410.031	-4.38
410.142	86.62
410.253	39.62
410.364	31.62
410.475	-50.38
410.585	125.62
410.696	59.62
410.807	83.62
410.918	133.62
411.029	126.62
411.14	91.62
411.251	91.62
411.362	182.62
411.472	95.62
411.583	146.62
411.694	178.62
411.805	72.62
411.916	77.62
412.026	216.62
412.137	96.62
412.248	124.62
412.359	153.62
412.47	77.62
412.58	62.62
412.691	169.62
412.802	133.62
412.912	118.62
413.023	108.62
413.134	104.62
413.245	164.62
413.355	81.62
413.466	127.62
413.577	59.62
413.687	156.62
413.798	125.62
413.909	173.62
414.019	105.62
414.13	133.62
414.24	77.62
414.351	108.62
414.462	261.62
414.572	149.62
414.683	139.62
414.793	102.62
414.904	404.62
415.014	115.62
415.125	84.62
415.235	200.62
415.346	188.62
415.456	185.62
415.567	173.62
415.677	129.62
415.788	157.62
415.898	148.62
416.009	141.62
416.119	116.62
416.23	80.62
416.34	127.62
416.45	138.62
416.561	776.62
416.671	303.62
416.782	29.62
416.892	85.62
417.002	167.62
417.113	157.62
417.223	124.62
417.333	125.62
417.444	113.62
417.554	120.62
417.664	141.62
417.775	95.62
417.885	113.62
417.995	106.62
418.106	235.62
418.216	129.62
418.326	124.62
418.436	123.62
418.547	87.62
418.657	89.62
418.767	184.62
418.877	120.62
418.987	94.62
419.098	118.62
419.208	126.62
419.318	148.62
419.428	129.62
419.538	140.62
419.648	113.62
419.759	152.62
419.869	230.62
419.979	85.62
420.089	128.62
420.199	157.62
420.309	144.62
420.419	168.62
420.529	146.62
420.639	516.62
420.749	185.62
420.859	159.62
420.969	176.62
421.079	274.62
421.189	194.62
421.299	259.62
421.409	103.62
421.519	180.62
421.629	228.62
421.739	104.62
421.849	97.62
421.959	127.62
422.069	172.62
422.179	111.62
422.289	88.62
422.399	184.62
422.509	191.62
422.619	2209.62
422.729	402.62
422.838	88.62
422.948	144.62
423.058	130.62
423.168	143.62
423.278	114.62
423.388	193.62
423.498	171.62
423.607	137.62
423.717	389.62
423.827	393.62
423.937	160.62
424.046	192.62
424.156	217.62
424.266	115.62
424.376	298.62
424.485	296.62
424.595	157.62
424.705	123.62
424.815	207.62
424.924	487.62
425.034	193.62
425.144	117.62
425.253	167.62
425.363	176.62
425.473	221.62
425.582	138.62
425.692	141.62
425.801	139.62
425.911	324.62
426.021	159.62
426.13	240.62
426.24	384.62
426.349	243.62
426.459	184.62
426.568	175.62
426.678	283.62
426.787	168.62
426.897	131.62
427.006	220.62
427.116	205.62
427.225	193.62
427.335	305.62
427.444	194.62
427.554	231.62
427.663	207.62
427.773	151.62
427.882	182.62
427.992	167.62
428.101	170.62
428.21	169.62
428.32	178.62
428.429	141.62
428.539	348.62
428.648	176.62
428.757	300.62
428.867	216.62
428.976	300.62
429.085	235.62
429.195	170.62
429.304	201.62
429.413	262.62
429.523	224.62
429.632	229.62
429.741	225.62
429.85	207.62
429.96	187.62
430.069	199.62
430.178	225.62
430.287	409.62
430.397	212.62
430.506	246.62
430.615	158.62
430.724	231.62
430.833	260.62
430.943	203.62
431.052	198.62
431.161	155.62
431.27	208.62
431.379	151.62
431.488	292.62
431.597	271.62
431.706	235.62
431.816	174.62
431.925	260.62
432.034	202.62
432.143	245.62
432.252	225.62
432.361	258.62
432.47	208.62
432.579	229.62
432.688	276.62
432.797	244.62
432.906	192.62
433.015	268.62
433.124	485.62
433.233	263.62
433.342	310.62
433.451	206.62
433.56	218.62
433.669	254.62
433.778	201.62
433.886	229.62
433.995	226.62
434.104	329.62
434.213	237.62
434.322	199.62
434.431	327.62
434.54	212.62
434.649	273.62
434.757	236.62
434.866	219.62
434.975	232.62
435.084	297.62
435.193	257.62
435.301	448.62
435.41	588.62
435.519	589.62
435.628	229.62
435.737	188.62
435.845	236.62
435.954	195.62
436.063	246.62
436.171	235.62
436.28	231.62
436.389	292.62
436.498	254.62
436.606	220.62
436.715	320.62
436.823	247.62
436.932	227.62
437.041	230.62
437.149	248.62
437.258	236.62
437.367	224.62
437.475	195.62
437.584	436.62
437.692	216.62
437.801	1410.62
437.91	383.62
438.018	167.62
438.127	174.62
438.235	290.62
438.344	185.62
438.452	190.62
438.561	174.62
438.669	172.62
438.778	168.62
438.886	174.62
438.995	206.62
439.103	182.62
439.212	191.62
439.32	256.62
439.428	173.62
439.537	184.62
439.645	240.62
439.754	228.62
439.862	181.62
439.97	223.62
440.079	203.62
440.187	142.62
440.295	293.62
440.404	213.62
440.512	201.62
440.62	207.62
440.729	304.62
440.837	235.62
440.945	704.62
441.054	351.62
441.162	173.62
441.27	232.62
441.378	199.62
441.487	194.62
441.595	418.62
441.703	271.62
441.811	292.62
441.92	182.62
442.028	160.62
442.136	273.62
442.244	230.62
442.352	203.62
442.461	195.62
442.569	101.62
442.677	141.62
442.785	258.62
442.893	189.62
443.001	164.62
443.109	151.62
443.217	181.62
443.325	152.62
443.434	620.62
443.542	407.62
443.65	197.62
443.758	331.62
443.866	214.62
443.974	349.62
444.082	208.62
444.19	246.62
444.298	207.62
444.406	238.62
444.514	193.62
444.622	266.62
444.73	257.62
444.838	209.62
444.946	326.62
445.054	187.62
445.161	186.62
445.269	208.62
445.377	207.62
445.485	229.62
445.593	277.62
445.701	376.62
445.809	262.62
445.917	274.62
446.025	175.62
446.132	285.62
446.24	288.62
446.348	287.62
446.456	160.62
446.564	178.62
446.671	247.62
446.779	169.62
446.887	196.62
446.995	238.62
447.102	223.62
447.21	247.62
447.318	257.62
447.426	202.62
447.533	368.62
447.641	1148.62
447.749	421.62
447.856	225.62
447.964	198.62
448.072	344.62
448.179	238.62
448.287	248.62
448.395	333.62
448.502	174.62
448.61	253.62
448.718	234.62
448.825	299.62
448.933	209.62
449.04	225.62
449.148	285.62
449.256	216.62
449.363	256.62
449.471	303.62
449.578	273.62
449.686	196.62
449.793	338.62
449.901	203.62
450.008	221.62
450.116	282.62
450.223	225.62
450.331	275.62
450.438	252.62
450.546	313.62
450.653	278.62
450.76	264.62
450.868	340.62
450.975	392.62
451.083	274.62
451.19	338.62
451.297	274.62
451.405	281.62
451.512	277.62
451.619	345.62
451.727	343.62
451.834	299.62
451.941	281.62
452.049	263.62
452.156	258.62
452.263	332.62
452.371	232.62
452.478	281.62
452.585	448.62
452.692	246.62
452.8	289.62
452.907	454.62
453.014	304.62
453.121	264.62
453.229	324.62
453.336	317.62
453.443	349.62
453.55	298.62
453.657	359.62
453.765	330.62
453.872	292.62
453.979	429.62
454.086	301.62
454.193	295.62
454.3	292.62
454.407	384.62
454.514	413.62
454.621	313.62
454.729	305.62
454.836	314.62
454.943	298.62
455.05	371.62
455.157	424.62
455.264	286.62
455.371	368.62
455.478	317.62
455.585	1326.62
455.692	503.62
455.799	431.62
455.906	280.62
456.013	328.62
456.12	281.62
456.227	301.62
456.334	378.62
456.44	436.62
456.547	359.62
456.654	317.62
456.761	400.62
456.868	391.62
456.975	410.62
457.082	393.62
457.189	299.62
457.296	338.62
457.402	356.62
457.509	327.62
457.616	332.62
457.723	514.62
457.83	376.62
457.936	277.62
458.043	550.62
458.15	377.62
458.257	387.62
458.363	342.62
458.47	359.62
458.577	383.62
458.684	312.62
458.79	457.62
458.897	378.62
459.004	406.62
459.11	366.62
459.217	377.62
459.324	376.62
459.43	444.62
459.537	549.62
459.644	366.62
459.75	331.62
459.857	644.62
459.964	415.62
460.07	432.62
460.177	434.62
460.283	422.62
460.39	471.62
460.496	419.62
460.603	390.62
460.71	375.62
460.816	385.62
460.923	407.62
461.029	400.62
461.136	394.62
461.242	445.62
461.349	369.62
461.455	331.62
461.562	655.62
461.668	464.62
461.774	367.62
461.881	447.62
461.987	400.62
462.094	385.62
462.2	435.62
462.307	424.62
462.413	401.62
462.519	351.62
462.626	504.62
462.732	362.62
462.838	367.62
462.945	501.62
463.051	437.62
463.157	400.62
463.264	459.62
463.37	413.62
463.476	422.62
463.583	404.62
463.689	363.62
463.795	389.62
463.901	420.62
464.008	498.62
464.114	365.62
464.22	343.62
464.326	467.62
464.433	329.62
464.539	340.62
464.645	411.62
464.751	520.62
464.857	378.62
464.963	363.62
465.07	397.62
465.176	415.62
465.282	358.62
465.388	482.62
465.494	295.62
465.6	358.62
465.706	353.62
465.812	260.62
465.918	402.62
466.024	392.62
466.131	381.62
466.237	338.62
466.343	325.62
466.449	310.62
466.555	304.62
466.661	295.62
466.767	340.62
466.873	320.62
466.979	449.62
467.085	358.62
467.191	329.62
467.296	293.62
467.402	340.62
467.508	357.62
467.614	425.62
467.72	330.62
467.826	291.62
467.932	306.62
468.038	310.62
468.144	331.62
468.25	301.62
468.355	265.62
468.461	344.62
468.567	261.62
468.673	304.62
468.779	385.62
468.885	309.62
468.99	246.62
469.096	316.62
469.202	381.62
469.308	323.62
469.413	341.62
469.519	299.62
469.625	277.62
469.731	313.62
469.836	313.62
469.942	397.62
470.048	303.62
470.153	359.62
470.259	296.62
470.365	389.62
470.47	360.62
470.576	300.62
470.682	292.62
470.787	309.62
470.893	290.62
470.999	314.62
471.104	359.62
471.21	311.62
471.315	218.62
471.421	247.62
471.527	462.62
471.632	347.62
471.738	374.62
471.843	303.62
471.949	322.62
472.054	314.62
472.16	320.62
472.265	294.62
472.371	264.62
472.476	316.62
472.582	424.62
472.687	280.62
472.793	249.62
472.898	337.62
473.003	252.62
473.109	247.62
473.214	280.62
473.32	242.62
473.425	298.62
473.53	292.62
473.636	250.62
473.741	287.62
473.847	268.62
473.952	361.62
474.057	306.62
474.163	334.62
474.268	299.62
474.373	332.62
474.478	231.62
474.584	278.62
474.689	306.62
474.794	304.62
474.9	501.62
475.005	281.62
475.11	413.62
475.215	296.62
475.321	292.62
475.426	398.62
475.531	376.62
475.636	318.62
475.741	228.62
475.846	360.62
475.952	485.62
476.057	337.62
476.162	335.62
476.267	484.62
476.372	506.62
476.477	278.62
476.582	390.62
476.687	273.62
476.793	304.62
476.898	274.62
477.003	343.62
477.108	284.62
477.213	267.62
477.318	340.62
477.423	333.62
477.528	380.62
477.633	394.62
477.738	311.62
477.843	266.62
477.948	345.62
478.053	329.62
478.158	274.62
478.263	334.62
478.368	359.62
478.473	352.62
478.578	345.62
478.682	315.62
478.787	341.62
478.892	311.62
478.997	411.62
479.102	280.62
479.207	311.62
479.312	431.62
479.417	291.62
479.521	277.62
479.626	378.62
479.731	369.62
479.836	277.62
479.941	410.62
480.045	433.62
480.15	337.62
480.255	311.62
480.36	314.62
480.465	304.62
480.569	441.62
480.674	375.62
480.779	280.62
480.883	303.62
480.988	379.62
481.093	388.62
481.197	345.62
481.302	344.62
481.407	425.62
481.511	1801.62
481.616	496.62
481.721	442.62
481.825	496.62
481.93	346.62
482.035	349.62
482.139	396.62
482.244	359.62
482.348	373.62
482.453	347.62
482.557	357.62
482.662	343.62
482.767	355.62
482.871	344.62
482.976	347.62
483.08	415.62
483.185	468.62
483.289	347.62
483.394	405.62
483.498	369.62
483.603	344.62
483.707	416.62
483.811	431.62
483.916	407.62
484.02	363.62
484.125	463.62
484.229	420.62
484.333	447.62
484.438	437.62
484.542	330.62
484.647	329.62
484.751	401.62
484.855	348.62
484.96	406.62
485.064	422.62
485.168	426.62
485.273	397.62
485.377	389.62
485.481	616.62
485.585	377.62
485.69	352.62
485.794	493.62
485.898	396.62
486.002	376.62
486.107	462.62
486.211	415.62
486.315	391.62
486.419	481.62
486.524	438.62
486.628	378.62
486.732	414.62
486.836	479.62
486.94	480.62
487.044	413.62
487.148	419.62
487.253	378.62
487.357	445.62
487.461	604.62
487.565	433.62
487.669	384.62
487.773	495.62
487.877	501.62
487.981	462.62
488.085	517.62
488.189	430.62
488.293	506.62
488.397	817.62
488.501	548.62
488.605	457.62
488.709	470.62
488.813	491.62
488.917	411.62
489.021	427.62
489.125	679.62
489.229	460.62
489.333	543.62
489.437	541.62
489.541	492.62
489.645	378.62
489.749	479.62
489.853	555.62
489.956	449.62
490.06	489.62
490.164	530.62
490.268	458.62
490.372	470.62
490.476	492.62
490.579	424.62
490.683	963.62
490.787	620.62
490.891	475.62
490.995	484.62
491.098	508.62
491.202	455.62
491.306	475.62
491.41	490.62
491.513	477.62
491.617	451.62
491.721	574.62
491.824	751.62
491.928	506.62
492.032	639.62
492.136	552.62
492.239	465.62
492.343	458.62
492.446	776.62
492.55	541.62
492.654	403.62
492.757	451.62
492.861	592.62
492.965	436.62
493.068	496.62
493.172	509.62
493.275	452.62
493.379	454.62
493.482	631.62
493.586	585.62
493.689	640.62
493.793	506.62
493.896	582.62
494	580.62
494.103	537.62
494.207	755.62
494.31	748.62
494.414	523.62
494.517	521.62
494.621	409.62
494.724	428.62
494.828	476.62
494.931	459.62
495.034	431.62
495.138	645.62
495.241	437.62
495.345	1073.62
495.448	597.62
495.551	475.62
495.655	455.62
495.758	441.62
495.861	487.62
495.965	452.62
496.068	476.62
496.171	548.62
496.274	460.62
496.378	461.62
496.481	482.62
496.584	472.62
496.687	457.62
496.791	492.62
496.894	552.62
496.997	453.62
497.1	460.62
497.204	509.62
497.307	413.62
497.41	568.62
497.513	659.62
497.616	482.62
497.719	468.62
497.823	492.62
497.926	433.62
498.029	433.62
498.132	487.62
498.235	473.62
498.338	491.62
498.441	543.62
498.544	513.62
498.647	447.62
498.75	549.62
498.853	657.62
498.956	479.62
499.059	646.62
499.163	494.62
499.266	495.62
499.369	467.62
499.471	487.62
499.574	551.62
499.677	516.62
499.78	515.62
499.883	507.62
499.986	548.62
500.089	470.62
500.192	580.62
500.295	504.62
500.398	441.62
500.501	521.62
500.604	473.62
500.707	477.62
500.809	536.62
500.912	561.62
501.015	546.62
501.118	503.62
501.221	584.62
501.324	441.62
501.426	461.62
501.529	535.62
501.632	518.62
501.735	450.62
501.837	476.62
501.94	450.62
502.043	401.62
502.146	506.62
502.248	469.62
502.351	418.62
502.454	418.62
502.557	453.62
502.659	442.62
502.762	377.62
502.865	438.62
502.967	370.62
503.07	416.62
503.173	483.62
503.275	417.62
503.378	408.62
503.48	442.62
503.583	428.62
503.686	441.62
503.788	604.62
503.891	475.62
503.993	540.62
504.096	380.62
504.198	480.62
504.301	355.62
504.403	390.62
504.506	478.62
504.608	351.62
504.711	385.62
504.813	502.62
504.916	454.62
505.018	399.62
505.121	407.62
505.223	433.62
505.326	413.62
505.428	447.62
505.531	408.62
505.633	415.62
505.735	366.62
505.838	417.62
505.94	381.62
506.042	351.62
506.145	373.62
506.247	388.62
506.35	335.62
506.452	465.62
506.554	491.62
506.656	422.62
506.759	365.62
506.861	393.62
506.963	385.62
507.066	401.62
507.168	468.62
507.27	358.62
507.372	338.62
507.475	373.62
507.577	400.62
507.679	345.62
507.781	351.62
507.883	423.62
507.986	309.62
508.088	399.62
508.19	410.62
508.292	376.62
508.394	350.62
508.496	368.62
508.598	340.62
508.701	341.62
508.803	437.62
508.905	344.62
509.007	386.62
509.109	482.62
509.211	426.62
509.313	368.62
509.415	325.62
509.517	380.62
509.619	325.62
509.721	415.62
509.823	392.62
509.925	471.62
510.027	351.62
510.129	442.62
510.231	310.62
510.333	328.62
510.435	381.62
510.537	410.62
510.639	386.62
510.741	348.62
510.843	431.62
510.945	378.62
511.047	423.62
511.148	422.62
511.25	346.62
511.352	367.62
511.454	361.62
511.556	391.62
511.658	367.62
511.76	457.62
511.861	476.62
511.963	342.62
512.065	345.62
512.167	341.62
512.268	486.62
512.37	426.62
512.472	392.62
512.574	368.62
512.676	438.62
512.777	389.62
512.879	316.62
512.981	334.62
513.082	408.62
513.184	341.62
513.286	650.62
513.387	468.62
513.489	473.62
513.591	355.62
513.692	450.62
513.794	470.62
513.896	295.62
513.997	316.62
514.099	395.62
514.2	352.62
514.302	407.62
514.404	394.62
514.505	341.62
514.607	408.62
514.708	420.62
514.81	415.62
514.911	394.62
515.013	476.62
515.114	444.62
515.216	361.62
515.317	373.62
515.419	412.62
515.52	384.62
515.622	406.62
515.723	472.62
515.825	478.62
515.926	409.62
516.027	386.62
516.129	358.62
516.23	367.62
516.332	408.62
516.433	419.62
516.534	463.62
516.636	406.62
516.737	408.62
516.838	1122.62
516.94	491.62
517.041	445.62
517.142	464.62
517.244	511.62
517.345	479.62
517.446	415.62
517.547	436.62
517.649	391.62
517.75	431.62
517.851	429.62
517.952	625.62
518.054	500.62
518.155	485.62
518.256	427.62
518.357	574.62
518.458	372.62
518.56	426.62
518.661	450.62
518.762	405.62
518.863	457.62
518.964	509.62
519.065	410.62
519.166	349.62
519.268	385.62
519.369	626.62
519.47	396.62
519.571	446.62
519.672	415.62
519.773	414.62
519.874	441.62
519.975	508.62
520.076	411.62
520.177	477.62
520.278	488.62
520.379	461.62
520.48	373.62
520.581	413.62
520.682	411.62
520.783	399.62
520.884	475.62
520.985	502.62
521.086	445.62
521.187	416.62
521.288	499.62
521.389	433.62
521.489	438.62
521.59	428.62
521.691	455.62
521.792	407.62
521.893	547.62
521.994	537.62
522.095	418.62
522.195	536.62
522.296	557.62
522.397	491.62
522.498	498.62
522.599	490.62
522.699	470.62
522.8	456.62
522.901	542.62
523.002	494.62
523.102	621.62
523.203	503.62
523.304	643.62
523.405	461.62
523.505	484.62
523.606	539.62
523.707	504.62
523.807	532.62
523.908	520.62
524.009	580.62
524.109	511.62
524.21	509.62
524.31	525.62
524.411	543.62
524.512	625.62
524.612	518.62
524.713	604.62
524.813	512.62
524.914	726.62
525.014	5016.62
525.115	957.62
525.216	508.62
525.316	465.62
525.417	532.62
525.517	525.62
525.618	467.62
525.718	455.62
525.819	495.62
525.919	529.62
526.019	444.62
526.12	530.62
526.22	468.62
526.321	425.62
526.421	423.62
526.522	469.62
526.622	368.62
526.722	410.62
526.823	529.62
526.923	479.62
527.023	555.62
527.124	456.62
527.224	502.62
527.324	450.62
527.425	567.62
527.525	453.62
527.625	447.62
527.726	433.62
527.826	588.62
527.926	443.62
528.026	472.62
528.127	474.62
528.227	457.62
528.327	534.62
528.427	555.62
528.528	501.62
528.628	527.62
528.728	505.62
528.828	613.62
528.928	550.62
529.029	516.62
529.129	593.62
529.229	526.62
529.329	505.62
529.429	576.62
529.529	580.62
529.629	558.62
529.729	534.62
529.829	634.62
529.93	425.62
530.03	566.62
530.13	524.62
530.23	457.62
530.33	602.62
530.43	532.62
530.53	502.62
530.63	505.62
530.73	469.62
530.83	387.62
530.93	425.62
531.03	453.62
531.13	505.62
531.23	446.62
531.33	490.62
531.429	502.62
531.529	474.62
531.629	471.62
531.729	437.62
531.829	389.62
531.929	433.62
532.029	475.62
532.129	389.62
532.229	459.62
532.328	479.62
532.428	416.62
532.528	437.62
532.628	414.62
532.728	416.62
532.827	412.62
532.927	532.62
533.027	461.62
533.127	529.62
533.227	483.62
533.326	498.62
533.426	405.62
533.526	517.62
533.625	624.62
533.725	702.62
533.825	528.62
533.924	439.62
534.024	327.62
534.124	344.62
534.223	487.62
534.323	729.62
534.423	485.62
534.522	471.62
534.622	410.62
534.722	436.62
534.821	457.62
534.921	469.62
535.02	369.62
535.12	497.62
535.219	567.62
535.319	477.62
535.419	463.62
535.518	408.62
535.618	431.62
535.717	501.62
535.817	444.62
535.916	379.62
536.016	447.62
536.115	390.62
536.215	456.62
536.314	345.62
536.413	358.62
536.513	461.62
536.612	360.62
536.712	333.62
536.811	398.62
536.91	347.62
537.01	333.62
537.109	410.62
537.209	399.62
537.308	332.62
537.407	338.62
537.507	404.62
537.606	357.62
537.705	386.62
537.805	436.62
537.904	332.62
538.003	392.62
538.102	470.62
538.202	379.62
538.301	459.62
538.4	495.62
538.499	456.62
538.599	413.62
538.698	582.62
538.797	464.62
538.896	493.62
538.995	457.62
539.095	439.62
539.194	549.62
539.293	431.62
539.392	436.62
539.491	397.62
539.59	400.62
539.689	525.62
539.789	450.62
539.888	295.62
539.987	289.62
540.086	405.62
540.185	384.62
540.284	469.62
540.383	441.62
540.482	336.62
540.581	411.62
540.68	449.62
540.779	449.62
540.878	428.62
540.977	510.62
541.076	430.62
541.175	456.62
541.274	612.62
541.373	524.62
541.472	439.62
541.571	393.62
541.67	1461.62
541.769	577.62
541.868	475.62
541.966	535.62
542.065	418.62
542.164	444.62
542.263	441.62
542.362	425.62
542.461	488.62
542.56	483.62
542.658	491.62
542.757	373.62
542.856	366.62
542.955	391.62
543.054	351.62
543.152	468.62
543.251	409.62
543.35	527.62
543.449	463.62
543.547	431.62
543.646	381.62
543.745	395.62
543.843	496.62
543.942	453.62
544.041	407.62
544.14	477.62
544.238	440.62
544.337	574.62
544.436	448.62
544.534	590.62
544.633	462.62
544.731	417.62
544.83	508.62
544.929	443.62
545.027	422.62
545.126	407.62
545.224	442.62
545.323	385.62
545.421	459.62
545.52	447.62
545.619	389.62
545.717	447.62
545.816	545.62
545.914	513.62
546.013	634.62
546.111	615.62
546.209	412.62
546.308	432.62
546.406	481.62
546.505	532.62
546.603	447.62
546.702	438.62
546.8	405.62
546.899	395.62
546.997	478.62
547.095	487.62
547.194	438.62
547.292	473.62
547.39	579.62
547.489	429.62
547.587	649.62
547.685	481.62
547.784	602.62
547.882	498.62
547.98	436.62
548.079	491.62
548.177	405.62
548.275	384.62
548.373	596.62
548.472	424.62
548.57	429.62
548.668	519.62
548.766	403.62
548.864	496.62
548.963	502.62
549.061	534.62
549.159	424.62
549.257	520.62
549.355	437.62
549.454	342.62
549.552	508.62
549.65	440.62
549.748	366.62
549.846	398.62
549.944	400.62
550.042	396.62
550.14	424.62
550.238	447.62
550.336	388.62
550.434	405.62
550.532	408.62
550.631	495.62
550.729	449.62
550.827	438.62
550.925	421.62
551.023	391.62
551.121	351.62
551.218	413.62
551.316	343.62
551.414	360.62
551.512	363.62
551.61	365.62
551.708	436.62
551.806	423.62
551.904	356.62
552.002	315.62
552.1	394.62
552.198	380.62
552.296	481.62
552.393	512.62
552.491	545.62
552.589	449.62
552.687	509.62
552.785	437.62
552.882	516.62
552.98	615.62
553.078	557.62
553.176	510.62
553.274	360.62
553.371	426.62
553.469	475.62
553.567	424.62
553.665	431.62
553.762	807.62
553.86	513.62
553.958	475.62
554.055	485.62
554.153	509.62
554.251	458.62
554.348	504.62
554.446	384.62
554.544	394.62
554.641	674.62
554.739	453.62
554.837	395.62
554.934	414.62
555.032	419.62
555.129	383.62
555.227	676.62
555.324	4775.62
555.422	837.62
555.519	441.62
555.617	451.62
555.715	331.62
555.812	1737.62
555.91	540.62
556.007	417.62
556.105	348.62
556.202	421.62
556.299	416.62
556.397	404.62
556.494	380.62
556.592	417.62
556.689	433.62
556.787	375.62
556.884	379.62
556.981	375.62
557.079	354.62
557.176	410.62
557.273	393.62
557.371	473.62
557.468	399.62
557.566	459.62
557.663	395.62
557.76	415.62
557.857	438.62
557.955	394.62
558.052	428.62
558.149	568.62
558.247	487.62
558.344	384.62
558.441	400.62
558.538	390.62
558.636	411.62
558.733	432.62
558.83	450.62
558.927	393.62
559.024	407.62
559.122	361.62
559.219	345.62
559.316	457.62
559.413	553.62
559.51	361.62
559.607	376.62
559.704	462.62
559.801	454.62
559.899	416.62
559.996	641.62
560.093	479.62
560.19	404.62
560.287	468.62
560.384	541.62
560.481	377.62
560.578	369.62
560.675	437.62
560.772	451.62
560.869	422.62
560.966	554.62
561.063	380.62
561.16	497.62
561.257	436.62
561.354	431.62
561.451	394.62
561.548	454.62
561.645	579.62
561.742	413.62
561.838	393.62
561.935	449.62
562.032	388.62
562.129	401.62
562.226	413.62
562.323	375.62
562.42	470.62
562.516	438.62
562.613	364.62
562.71	385.62
562.807	998.62
562.904	409.62
563	396.62
563.097	393.62
563.194	446.62
563.291	351.62
563.387	380.62
563.484	477.62
563.581	377.62
563.678	324.62
563.774	702.62
563.871	408.62
563.968	364.62
564.064	415.62
564.161	391.62
564.258	373.62
564.354	425.62
564.451	440.62
564.548	392.62
564.644	374.62
564.741	454.62
564.837	325.62
564.934	381.62
565.031	394.62
565.127	374.62
565.224	405.62
565.32	510.62
565.417	368.62
565.513	406.62
565.61	432.62
565.706	534.62
565.803	449.62
565.899	410.62
565.996	461.62
566.092	380.62
566.189	358.62
566.285	427.62
566.382	350.62
566.478	416.62
566.574	482.62
566.671	325.62
566.767	393.62
566.864	358.62
566.96	409.62
567.056	333.62
567.153	536.62
567.249	509.62
567.345	415.62
567.442	494.62
567.538	463.62
567.634	394.62
567.731	339.62
567.827	405.62
567.923	412.62
568.019	290.62
568.116	317.62
568.212	291.62
568.308	339.62
568.404	332.62
568.501	405.62
568.597	356.62
568.693	278.62
568.789	876.62
568.885	342.62
568.982	364.62
569.078	367.62
569.174	362.62
569.27	277.62
569.366	393.62
569.462	335.62
569.558	288.62
569.655	340.62
569.751	293.62
569.847	296.62
569.943	274.62
570.039	313.62
570.135	639.62
570.231	326.62
570.327	452.62
570.423	416.62
570.519	361.62
570.615	312.62
570.711	387.62
570.807	359.62
570.903	280.62
570.999	362.62
571.095	357.62
571.191	335.62
571.287	397.62
571.383	407.62
571.479	333.62
571.574	468.62
571.67	334.62
571.766	493.62
571.862	370.62
571.958	345.62
572.054	388.62
572.15	302.62
572.246	305.62
572.341	375.62
572.437	323.62
572.533	389.62
572.629	333.62
572.725	317.62
572.82	347.62
572.916	387.62
573.012	303.62
573.108	426.62
573.203	316.62
573.299	292.62
573.395	282.62
573.49	278.62
573.586	283.62
573.682	312.62
573.778	444.62
573.873	291.62
573.969	271.62
574.065	312.62
574.16	272.62
574.256	302.62
574.351	391.62
574.447	250.62
574.543	293.62
574.638	381.62
574.734	333.62
574.829	461.62
574.925	294.62
575.02	308.62
575.116	264.62
575.212	316.62
575.307	437.62
575.403	281.62
575.498	319.62
575.594	343.62
575.689	318.62
575.784	337.62
575.88	348.62
575.975	384.62
576.071	273.62
576.166	270.62
576.262	317.62
576.357	282.62
576.452	422.62
576.548	370.62
576.643	288.62
576.739	326.62
576.834	348.62
576.929	293.62
577.025	436.62
577.12	265.62
577.215	247.62
577.311	314.62
577.406	386.62
577.501	475.62
577.597	218.62
577.692	392.62
577.787	447.62
577.882	263.62
577.978	305.62
578.073	279.62
578.168	233.62
578.263	211.62
578.358	274.62
578.454	221.62
578.549	184.62
578.644	240.62
578.739	281.62
578.834	218.62
578.929	220.62
579.025	261.62
579.12	278.62
579.215	447.62
579.31	485.62
579.405	221.62
579.5	304.62
579.595	279.62
579.69	198.62
579.785	210.62
579.88	263.62
579.975	261.62
580.07	244.62
580.165	236.62
580.26	352.62
580.355	246.62
580.45	352.62
580.545	286.62
580.64	269.62
580.735	334.62
580.83	334.62
580.925	207.62
581.02	207.62
581.115	248.62
581.21	184.62
581.305	218.62
581.4	260.62
581.495	253.62
581.589	268.62
581.684	220.62
581.779	358.62
581.874	255.62
581.969	334.62
582.064	256.62
582.158	218.62
582.253	211.62
582.348	262.62
582.443	279.62
582.537	255.62
582.632	397.62
582.727	261.62
582.822	248.62
582.916	229.62
583.011	247.62
583.106	249.62
583.201	202.62
583.295	313.62
583.39	168.62
583.485	193.62
583.579	1706.62
583.674	421.62
583.769	433.62
583.863	239.62
583.958	241.62
584.052	134.62
584.147	214.62
584.242	202.62
584.336	212.62
584.431	335.62
584.525	249.62
584.62	307.62
584.714	237.62
584.809	259.62
584.903	200.62
584.998	260.62
585.092	208.62
585.187	223.62
585.281	173.62
585.376	221.62
585.47	239.62
585.565	181.62
585.659	148.62
585.754	247.62
585.848	230.62
585.942	194.62
586.037	235.62
586.131	2042.62
586.226	372.62
586.32	262.62
586.414	114.62
586.509	260.62
586.603	281.62
586.697	207.62
586.792	167.62
586.886	146.62
586.98	295.62
587.075	197.62
587.169	153.62
587.263	396.62
587.357	212.62
587.452	130.62
587.546	280.62
587.64	148.62
587.734	176.62
587.829	242.62
587.923	177.62
588.017	155.62
588.111	170.62
588.205	247.62
588.3	136.62
588.394	131.62
588.488	160.62
588.582	154.62
588.676	159.62
588.77	185.62
588.864	215.62
588.958	164.62
589.052	157.62
589.147	238.62
589.241	161.62
589.335	165.62
589.429	249.62
589.523	159.62
589.617	223.62
589.711	222.62
589.805	191.62
589.899	229.62
589.993	201.62
590.087	77.62
590.181	77.62
590.275	191.62
590.369	125.62
590.462	99.62
590.556	138.62
590.65	144.62
590.744	114.62
590.838	124.62
590.932	182.62
591.026	198.62
591.12	269.62
591.214	200.62
591.307	188.62
591.401	141.62
591.495	273.62
591.589	130.62
591.683	168.62
591.777	200.62
591.87	469.62
591.964	223.62
592.058	145.62
592.152	229.62
592.245	138.62
592.339	223.62
592.433	313.62
592.527	187.62
592.62	120.62
592.714	216.62
592.808	225.62
592.901	155.62
592.995	142.62
593.089	395.62
593.182	188.62
593.276	137.62
593.37	144.62
593.463	113.62
593.557	165.62
593.65	185.62
593.744	155.62
593.837	219.62
593.931	163.62
594.025	2132.62
594.118	365.62
594.212	180.62
594.305	145.62
594.399	166.62
594.492	452.62
594.586	220.62
594.679	134.62
594.773	141.62
594.866	252.62
594.96	161.62
595.053	144.62
595.146	195.62
595.24	135.62
595.333	108.62
595.427	111.62
595.52	122.62
595.614	283.62
595.707	215.62
595.8	168.62
595.894	173.62
595.987	117.62
596.08	153.62
596.174	454.62
596.267	255.62
596.36	296.62
596.454	270.62
596.547	220.62
596.64	164.62
596.733	123.62
596.827	198.62
596.92	174.62
597.013	137.62
597.106	60.62
597.2	66.62
597.293	154.62
597.386	334.62
597.479	252.62
597.572	260.62
597.666	137.62
597.759	150.62
597.852	297.62
597.945	86.62
598.038	118.62
598.131	154.62
598.224	158.62
598.317	215.62
598.411	192.62
598.504	188.62
598.597	172.62
598.69	139.62
598.783	168.62
598.876	130.62
598.969	128.62
599.062	136.62
599.155	184.62
599.248	111.62
599.341	191.62
599.434	119.62
599.527	155.62
599.62	130.62
599.713	139.62
599.806	179.62
599.899	289.62
599.991	165.62
600.084	310.62
600.177	153.62
600.27	140.62
600.363	240.62
600.456	157.62
600.549	201.62
600.642	138.62
600.734	116.62
600.827	123.62
600.92	277.62
601.013	160.62
601.106	201.62
601.199	169.62
601.291	122.62
601.384	193.62
601.477	366.62
601.57	201.62
601.662	164.62
601.755	185.62
601.848	185.62
601.94	104.62
602.033	269.62
602.126	174.62
602.219	140.62
602.311	261.62
602.404	188.62
602.497	134.62
602.589	136.62
602.682	217.62
602.774	174.62
602.867	173.62
602.96	192.62
603.052	184.62
603.145	147.62
603.237	166.62
603.33	186.62
603.422	223.62
603.515	126.62
603.608	215.62
603.7	203.62
603.793	138.62
603.885	193.62
603.978	156.62
604.07	120.62
604.163	138.62
604.255	132.62
604.347	127.62
604.44	144.62
604.532	205.62
604.625	178.62
604.717	170.62
604.81	209.62
604.902	128.62
604.994	93.62
605.087	152.62
605.179	125.62
605.271	168.62
605.364	187.62
605.456	185.62
605.548	113.62
605.641	188.62
605.733	144.62
605.825	143.62
605.918	119.62
606.01	278.62
606.102	565.62
606.194	179.62
606.287	326.62
606.379	136.62
606.471	146.62
606.563	271.62
606.655	202.62
606.748	195.62
606.84	207.62
606.932	233.62
607.024	123.62
607.116	145.62
607.208	182.62
607.301	165.62
607.393	140.62
607.485	193.62
607.577	196.62
607.669	248.62
607.761	234.62
607.853	358.62
607.945	131.62
608.037	122.62
608.129	132.62
608.221	151.62
608.313	137.62
608.405	205.62
608.497	158.62
608.589	132.62
608.681	210.62
608.773	212.62
608.865	181.62
608.957	237.62
609.049	165.62
609.141	251.62
609.233	166.62
609.325	113.62
609.417	146.62
609.509	216.62
609.601	241.62
609.693	164.62
609.784	155.62
609.876	172.62
609.968	189.62
610.06	1972.62
610.152	465.62
610.244	850.62
610.335	214.62
610.427	191.62
610.519	139.62
610.611	195.62
610.702	185.62
610.794	191.62
610.886	227.62
610.978	196.62
611.069	536.62
611.161	188.62
611.253	257.62
611.344	192.62
611.436	90.62
611.528	210.62
611.62	191.62
611.711	156.62
611.803	113.62
611.894	143.62
611.986	112.62
612.078	127.62
612.169	157.62
612.261	172.62
612.352	76.62
612.444	101.62
612.536	264.62
612.627	142.62
612.719	72.62
612.81	135.62
612.902	38.62
612.993	146.62
613.085	144.62
613.176	40.62
613.268	119.62
613.359	110.62
613.451	108.62
613.542	110.62
613.634	84.62
613.725	152.62
613.816	196.62
613.908	101.62
613.999	127.62
614.091	37.62
614.182	54.62
614.273	159.62
614.365	55.62
614.456	30.62
614.547	74.62
614.639	40.62
614.73	22.62
614.821	113.62
614.913	59.62
615.004	8.62
615.095	13.62
615.187	19.62
