Data from 14g_HRC06701__0__183.txt Node

Date: Thu Apr 18 01:57:54 CDT 2024
User: Estudiantes 2
Spectrometer: HR+C0670
Trigger mode: 4
Integration Time (sec): 1.000000E0
Scans to average: 1
Electric dark correction enabled: true
Nonlinearity correction enabled: false
Boxcar width: 0
XAxis mode: Wavelengths
Number of Pixels in Spectrum: 2048
>>>>>Begin Spectral Data<<<<<
407.81	-132.44
407.921	-132.44
408.032	-132.44
408.143	-88.44
408.254	-149.44
408.365	23.56
408.476	246.56
408.587	-39.44
408.699	-16.44
408.81	12.56
408.921	-26.44
409.032	-54.44
409.143	44.56
409.254	56.56
409.365	65.56
409.476	-24.44
409.587	38.56
409.698	43.56
409.809	70.56
409.92	-14.44
410.031	-14.44
410.142	61.56
410.253	51.56
410.364	55.56
410.475	799.56
410.585	4077.56
410.696	4510.56
410.807	4385.56
410.918	4317.56
411.029	4538.56
411.14	4381.56
411.251	4450.56
411.362	4487.56
411.472	4412.56
411.583	4388.56
411.694	4518.56
411.805	4494.56
411.916	4454.56
412.026	4561.56
412.137	4500.56
412.248	4531.56
412.359	4483.56
412.47	4486.56
412.58	4355.56
412.691	4517.56
412.802	4413.56
412.912	4338.56
413.023	4320.56
413.134	4370.56
413.245	4431.56
413.355	4343.56
413.466	4366.56
413.577	4415.56
413.687	4447.56
413.798	4315.56
413.909	4402.56
414.019	4425.56
414.13	4437.56
414.24	4405.56
414.351	4417.56
414.462	4622.56
414.572	4494.56
414.683	4428.56
414.793	4457.56
414.904	4656.56
415.014	4460.56
415.125	4357.56
415.235	4398.56
415.346	4740.56
415.456	4560.56
415.567	4455.56
415.677	4416.56
415.788	4456.56
415.898	4284.56
416.009	4373.56
416.119	4493.56
416.23	4417.56
416.34	4372.56
416.45	4412.56
416.561	5116.56
416.671	4444.56
416.782	4426.56
416.892	4402.56
417.002	4428.56
417.113	4589.56
417.223	4379.56
417.333	4364.56
417.444	4540.56
417.554	4608.56
417.664	4491.56
417.775	4466.56
417.885	4619.56
417.995	4555.56
418.106	4859.56
418.216	4630.56
418.326	4749.56
418.436	4802.56
418.547	4886.56
418.657	4804.56
418.767	5018.56
418.877	4987.56
418.987	4966.56
419.098	4889.56
419.208	5043.56
419.318	5119.56
419.428	5119.56
419.538	4971.56
419.648	5084.56
419.759	4986.56
419.869	4960.56
419.979	4933.56
420.089	5000.56
420.199	4984.56
420.309	5027.56
420.419	5035.56
420.529	5040.56
420.639	5534.56
420.749	5097.56
420.859	5150.56
420.969	5246.56
421.079	5439.56
421.189	5155.56
421.299	5088.56
421.409	5207.56
421.519	5205.56
421.629	5272.56
421.739	5201.56
421.849	5255.56
421.959	5226.56
422.069	5302.56
422.179	5292.56
422.289	5299.56
422.399	5440.56
422.509	5607.56
422.619	7997.56
422.729	5838.56
422.838	5628.56
422.948	5678.56
423.058	5678.56
423.168	5681.56
423.278	5703.56
423.388	5774.56
423.498	5992.56
423.607	5998.56
423.717	6201.56
423.827	6231.56
423.937	6200.56
424.046	6025.56
424.156	6273.56
424.266	6108.56
424.376	6413.56
424.485	6212.56
424.595	6284.56
424.705	6221.56
424.815	6302.56
424.924	6716.56
425.034	6287.56
425.144	6404.56
425.253	6315.56
425.363	6604.56
425.473	6538.56
425.582	6315.56
425.692	6514.56
425.801	6368.56
425.911	6663.56
426.021	6603.56
426.13	6748.56
426.24	6831.56
426.349	6758.56
426.459	6784.56
426.568	6628.56
426.678	6863.56
426.787	6896.56
426.897	6825.56
427.006	6837.56
427.116	7049.56
427.225	6866.56
427.335	7206.56
427.444	7111.56
427.554	7035.56
427.663	7142.56
427.773	7124.56
427.882	7273.56
427.992	7291.56
428.101	7252.56
428.21	7217.56
428.32	7416.56
428.429	7302.56
428.539	7670.56
428.648	7454.56
428.757	7474.56
428.867	7629.56
428.976	7739.56
429.085	7713.56
429.195	7582.56
429.304	7671.56
429.413	7771.56
429.523	7683.56
429.632	7791.56
429.741	7746.56
429.85	7690.56
429.96	8027.56
430.069	7774.56
430.178	7802.56
430.287	8195.56
430.397	7983.56
430.506	8012.56
430.615	7988.56
430.724	8189.56
430.833	8188.56
430.943	8197.56
431.052	8213.56
431.161	8216.56
431.27	8436.56
431.379	8388.56
431.488	8698.56
431.597	8472.56
431.706	8679.56
431.816	8535.56
431.925	8528.56
432.034	8525.56
432.143	8592.56
432.252	8534.56
432.361	8650.56
432.47	8577.56
432.579	8688.56
432.688	8462.56
432.797	8636.56
432.906	8509.56
433.015	8742.56
433.124	8977.56
433.233	8737.56
433.342	8691.56
433.451	8707.56
433.56	8685.56
433.669	8658.56
433.778	8743.56
433.886	8949.56
433.995	8779.56
434.104	9016.56
434.213	8978.56
434.322	9005.56
434.431	9351.56
434.54	9395.56
434.649	9490.56
434.757	9456.56
434.866	9291.56
434.975	9271.56
435.084	9146.56
435.193	9139.56
435.301	9227.56
435.41	9148.56
435.519	9230.56
435.628	8482.56
435.737	8492.56
435.845	8187.56
435.954	8111.56
436.063	8269.56
436.171	8322.56
436.28	8259.56
436.389	8432.56
436.498	7991.56
436.606	8175.56
436.715	8332.56
436.823	7949.56
436.932	7885.56
437.041	7860.56
437.149	7863.56
437.258	7735.56
437.367	7610.56
437.475	7724.56
437.584	7845.56
437.692	7601.56
437.801	9235.56
437.91	7665.56
438.018	7560.56
438.127	7413.56
438.235	7531.56
438.344	7572.56
438.452	7537.56
438.561	7439.56
438.669	7536.56
438.778	7396.56
438.886	7364.56
438.995	7260.56
439.103	7452.56
439.212	7516.56
439.32	7448.56
439.428	7425.56
439.537	7388.56
439.645	7549.56
439.754	7499.56
439.862	7227.56
439.97	7448.56
440.079	7529.56
440.187	7522.56
440.295	7686.56
440.404	7659.56
440.512	7595.56
440.62	7727.56
440.729	7819.56
440.837	7794.56
440.945	8435.56
441.054	7977.56
441.162	7923.56
441.27	8243.56
441.378	8129.56
441.487	8189.56
441.595	8587.56
441.703	8360.56
441.811	8146.56
441.92	8208.56
442.028	7927.56
442.136	7927.56
442.244	7975.56
442.352	7876.56
442.461	7841.56
442.569	7882.56
442.677	7908.56
442.785	7971.56
442.893	7827.56
443.001	7812.56
443.109	7755.56
443.217	7828.56
443.325	7784.56
443.434	8503.56
443.542	8250.56
443.65	8035.56
443.758	8225.56
443.866	8111.56
443.974	8509.56
444.082	8445.56
444.19	8659.56
444.298	8700.56
444.406	8850.56
444.514	9035.56
444.622	8863.56
444.73	9085.56
444.838	8851.56
444.946	8884.56
445.054	8720.56
445.161	8545.56
445.269	8431.56
445.377	8430.56
445.485	8473.56
445.593	8189.56
445.701	8276.56
445.809	8297.56
445.917	8123.56
446.025	8001.56
446.132	8209.56
446.24	8169.56
446.348	8058.56
446.456	8020.56
446.564	8011.56
446.671	8069.56
446.779	7914.56
446.887	7991.56
446.995	7809.56
447.102	8015.56
447.21	8012.56
447.318	7892.56
447.426	7818.56
447.533	8175.56
447.641	8999.56
447.749	7938.56
447.856	7925.56
447.964	7889.56
448.072	8037.56
448.179	7848.56
448.287	8063.56
448.395	8019.56
448.502	7893.56
448.61	7993.56
448.718	8018.56
448.825	8052.56
448.933	7971.56
449.04	8029.56
449.148	8026.56
449.256	8083.56
449.363	8200.56
449.471	8251.56
449.578	8299.56
449.686	8278.56
449.793	8442.56
449.901	8324.56
450.008	8488.56
450.116	8609.56
450.223	8448.56
450.331	8701.56
450.438	8771.56
450.546	8855.56
450.653	8868.56
450.76	9021.56
450.868	8906.56
450.975	9126.56
451.083	8997.56
451.19	9167.56
451.297	8902.56
451.405	9093.56
451.512	9078.56
451.619	9384.56
451.727	9429.56
451.834	9315.56
451.941	9131.56
452.049	9359.56
452.156	9402.56
452.263	9387.56
452.371	9533.56
452.478	9587.56
452.585	9662.56
452.692	9543.56
452.8	9668.56
452.907	9657.56
453.014	9735.56
453.121	9766.56
453.229	9730.56
453.336	9802.56
453.443	9954.56
453.55	9912.56
453.657	9844.56
453.765	10052.56
453.872	9936.56
453.979	10011.56
454.086	10056.56
454.193	10166.56
454.3	9964.56
454.407	10281.56
454.514	10310.56
454.621	10111.56
454.729	10064.56
454.836	10180.56
454.943	10242.56
455.05	10262.56
455.157	10424.56
455.264	10346.56
455.371	10499.56
455.478	10351.56
455.585	10852.56
455.692	10615.56
455.799	10949.56
455.906	10595.56
456.013	10487.56
456.12	10604.56
456.227	10750.56
456.334	10850.56
456.44	10987.56
456.547	11051.56
456.654	10831.56
456.761	11177.56
456.868	11163.56
456.975	11247.56
457.082	11095.56
457.189	11130.56
457.296	11203.56
457.402	11309.56
457.509	11139.56
457.616	11499.56
457.723	11802.56
457.83	11586.56
457.936	11707.56
458.043	12227.56
458.15	11802.56
458.257	12055.56
458.363	12254.56
458.47	12305.56
458.577	12472.56
458.684	12605.56
458.79	12887.56
458.897	13058.56
459.004	13353.56
459.11	13038.56
459.217	13154.56
459.324	13412.56
459.43	13836.56
459.537	13862.56
459.644	13811.56
459.75	14140.56
459.857	14363.56
459.964	14217.56
460.07	14189.56
460.177	14552.56
460.283	14552.56
460.39	14552.56
460.496	14514.56
460.603	14552.56
460.71	14552.56
460.816	14552.56
460.923	14474.56
461.029	14368.56
461.136	14552.56
461.242	14552.56
461.349	14552.56
461.455	14552.56
461.562	14552.56
461.668	14552.56
461.774	14552.56
461.881	14552.56
461.987	14552.56
462.094	14552.56
462.2	14552.56
462.307	14552.56
462.413	14552.56
462.519	14552.56
462.626	14552.56
462.732	14552.56
462.838	14552.56
462.945	14552.56
463.051	14552.56
463.157	14552.56
463.264	14552.56
463.37	14552.56
463.476	14552.56
463.583	14552.56
463.689	14552.56
463.795	14552.56
463.901	14552.56
464.008	14552.56
464.114	14552.56
464.22	14552.56
464.326	14552.56
464.433	14552.56
464.539	14552.56
464.645	14552.56
464.751	14552.56
464.857	14552.56
464.963	14138.56
465.07	13966.56
465.176	13510.56
465.282	13252.56
465.388	12946.56
465.494	12597.56
465.6	12490.56
465.706	11989.56
465.812	12174.56
465.918	12004.56
466.024	11647.56
466.131	11615.56
466.237	11523.56
466.343	11263.56
466.449	11022.56
466.555	10954.56
466.661	10817.56
466.767	10805.56
466.873	10691.56
466.979	10903.56
467.085	10539.56
467.191	10671.56
467.296	10579.56
467.402	10543.56
467.508	10447.56
467.614	10335.56
467.72	10287.56
467.826	9958.56
467.932	9991.56
468.038	9933.56
468.144	9736.56
468.25	9574.56
468.355	9721.56
468.461	9619.56
468.567	9528.56
468.673	9716.56
468.779	9623.56
468.885	9483.56
468.99	9509.56
469.096	9586.56
469.202	9662.56
469.308	9649.56
469.413	9800.56
469.519	9622.56
469.625	9635.56
469.731	9658.56
469.836	9695.56
469.942	9912.56
470.048	9701.56
470.153	9635.56
470.259	9718.56
470.365	9775.56
470.47	9766.56
470.576	9534.56
470.682	9580.56
470.787	9569.56
470.893	9315.56
470.999	9360.56
471.104	9363.56
471.21	8997.56
471.315	8915.56
471.421	8957.56
471.527	8942.56
471.632	8861.56
471.738	8698.56
471.843	8532.56
471.949	8604.56
472.054	8560.56
472.16	8581.56
472.265	8310.56
472.371	8405.56
472.476	8443.56
472.582	8427.56
472.687	8138.56
472.793	8257.56
472.898	8149.56
473.003	8180.56
473.109	8121.56
473.214	7979.56
473.32	8031.56
473.425	8134.56
473.53	8128.56
473.636	7924.56
473.741	7904.56
473.847	7904.56
473.952	8050.56
474.057	8046.56
474.163	8077.56
474.268	7888.56
474.373	7974.56
474.478	7943.56
474.584	7989.56
474.689	7974.56
474.794	7976.56
474.9	8203.56
475.005	7857.56
475.11	8167.56
475.215	7898.56
475.321	7948.56
475.426	8082.56
475.531	8111.56
475.636	7911.56
475.741	7967.56
475.846	8231.56
475.952	8286.56
476.057	8074.56
476.162	8207.56
476.267	8442.56
476.372	8449.56
476.477	8127.56
476.582	8479.56
476.687	8228.56
476.793	8309.56
476.898	8487.56
477.003	8366.56
477.108	8309.56
477.213	8378.56
477.318	8493.56
477.423	8654.56
477.528	8720.56
477.633	8820.56
477.738	8751.56
477.843	8706.56
477.948	8974.56
478.053	8889.56
478.158	9022.56
478.263	9228.56
478.368	9220.56
478.473	9451.56
478.578	9396.56
478.682	9182.56
478.787	9404.56
478.892	9434.56
478.997	9582.56
479.102	9541.56
479.207	9470.56
479.312	9734.56
479.417	9674.56
479.521	9587.56
479.626	9758.56
479.731	9721.56
479.836	9731.56
479.941	10004.56
480.045	10027.56
480.15	10203.56
480.255	10223.56
480.36	10286.56
480.465	10357.56
480.569	10289.56
480.674	10093.56
480.779	9915.56
480.883	9981.56
480.988	10088.56
481.093	9843.56
481.197	9797.56
481.302	9933.56
481.407	9917.56
481.511	11180.56
481.616	9800.56
481.721	9879.56
481.825	10031.56
481.93	9826.56
482.035	10011.56
482.139	10075.56
482.244	10018.56
482.348	10150.56
482.453	9958.56
482.557	10292.56
482.662	10082.56
482.767	10098.56
482.871	10099.56
482.976	10334.56
483.08	10516.56
483.185	10537.56
483.289	10394.56
483.394	10402.56
483.498	10554.56
483.603	10527.56
483.707	10747.56
483.811	10818.56
483.916	10916.56
484.02	10914.56
484.125	11112.56
484.229	11066.56
484.333	11178.56
484.438	11044.56
484.542	11117.56
484.647	11248.56
484.751	11572.56
484.855	11455.56
484.96	11458.56
485.064	11617.56
485.168	11749.56
485.273	11756.56
485.377	11883.56
485.481	12062.56
485.585	11930.56
485.69	12106.56
485.794	12049.56
485.898	12134.56
486.002	12159.56
486.107	12282.56
486.211	12125.56
486.315	12102.56
486.419	12367.56
486.524	12300.56
486.628	12316.56
486.732	12340.56
486.836	12142.56
486.94	12378.56
487.044	12346.56
487.148	12309.56
487.253	12273.56
487.357	12509.56
487.461	12582.56
487.565	12314.56
487.669	12296.56
487.773	12267.56
487.877	12455.56
487.981	12433.56
488.085	12373.56
488.189	12342.56
488.293	12587.56
488.397	12750.56
488.501	12403.56
488.605	12315.56
488.709	12354.56
488.813	12426.56
488.917	12309.56
489.021	12377.56
489.125	12534.56
489.229	12302.56
489.333	12433.56
489.437	12646.56
489.541	12506.56
489.645	12466.56
489.749	12698.56
489.853	12741.56
489.956	12433.56
490.06	12611.56
490.164	12690.56
490.268	12579.56
490.372	12692.56
490.476	12543.56
490.579	12502.56
490.683	13276.56
490.787	12636.56
490.891	12591.56
490.995	12593.56
491.098	12572.56
491.202	12623.56
491.306	12481.56
491.41	12614.56
491.513	12571.56
491.617	12639.56
491.721	12853.56
491.824	12821.56
491.928	12709.56
492.032	12871.56
492.136	12747.56
492.239	12645.56
492.343	12607.56
492.446	13105.56
492.55	12696.56
492.654	12597.56
492.757	12527.56
492.861	12668.56
492.965	12706.56
493.068	12742.56
493.172	12756.56
493.275	12703.56
493.379	12654.56
493.482	12764.56
493.586	12875.56
493.689	12892.56
493.793	12812.56
493.896	12897.56
494	12806.56
494.103	12739.56
494.207	13160.56
494.31	13093.56
494.414	13102.56
494.517	12753.56
494.621	12587.56
494.724	12611.56
494.828	12585.56
494.931	12590.56
495.034	12611.56
495.138	12617.56
495.241	12561.56
495.345	13319.56
495.448	12617.56
495.551	12559.56
495.655	12526.56
495.758	12542.56
495.861	12535.56
495.965	12516.56
496.068	12545.56
496.171	12790.56
496.274	12626.56
496.378	12589.56
496.481	12730.56
496.584	12887.56
496.687	12853.56
496.791	12819.56
496.894	13026.56
496.997	13006.56
497.1	12969.56
497.204	13166.56
497.307	13102.56
497.41	13589.56
497.513	13568.56
497.616	13404.56
497.719	13613.56
497.823	13929.56
497.926	13909.56
498.029	14064.56
498.132	14211.56
498.235	14552.56
498.338	14552.56
498.441	14552.56
498.544	14552.56
498.647	14552.56
498.75	14552.56
498.853	14552.56
498.956	14552.56
499.059	14552.56
499.163	14552.56
499.266	14552.56
499.369	14552.56
499.471	14552.56
499.574	14552.56
499.677	14552.56
499.78	14552.56
499.883	14552.56
499.986	14552.56
500.089	14552.56
500.192	14552.56
500.295	14552.56
500.398	14552.56
500.501	14552.56
500.604	14552.56
500.707	14552.56
500.809	14552.56
500.912	14552.56
501.015	14552.56
501.118	14552.56
501.221	14552.56
501.324	14552.56
501.426	14552.56
501.529	14552.56
501.632	14552.56
501.735	14552.56
501.837	14552.56
501.94	14552.56
502.043	14552.56
502.146	14552.56
502.248	14238.56
502.351	13843.56
502.454	13666.56
502.557	13441.56
502.659	13195.56
502.762	12736.56
502.865	12587.56
502.967	12319.56
503.07	12146.56
503.173	12084.56
503.275	11875.56
503.378	11782.56
503.48	11646.56
503.583	11719.56
503.686	11435.56
503.788	11667.56
503.891	11391.56
503.993	11566.56
504.096	11443.56
504.198	11426.56
504.301	11315.56
504.403	11446.56
504.506	11254.56
504.608	11032.56
504.711	10825.56
504.813	10810.56
504.916	10489.56
505.018	10294.56
505.121	10014.56
505.223	9972.56
505.326	9836.56
505.428	9830.56
505.531	9745.56
505.633	9523.56
505.735	9400.56
505.838	9347.56
505.94	9342.56
506.042	9070.56
506.145	9196.56
506.247	9215.56
506.35	9008.56
506.452	8908.56
506.554	9125.56
506.656	8931.56
506.759	8817.56
506.861	8891.56
506.963	8661.56
507.066	8788.56
507.168	8965.56
507.27	8614.56
507.372	8519.56
507.475	8588.56
507.577	8480.56
507.679	8510.56
507.781	8442.56
507.883	8415.56
507.986	8365.56
508.088	8303.56
508.19	8317.56
508.292	8397.56
508.394	8254.56
508.496	8299.56
508.598	8271.56
508.701	8221.56
508.803	8262.56
508.905	8135.56
509.007	8088.56
509.109	8316.56
509.211	8193.56
509.313	8176.56
509.415	8063.56
509.517	8124.56
509.619	7970.56
509.721	8134.56
509.823	8078.56
509.925	8123.56
510.027	7920.56
510.129	7962.56
510.231	8140.56
510.333	8018.56
510.435	7975.56
510.537	8018.56
510.639	8085.56
510.741	7834.56
510.843	8139.56
510.945	7887.56
511.047	7954.56
511.148	8081.56
511.25	7896.56
511.352	8043.56
511.454	7886.56
511.556	8160.56
511.658	8066.56
511.76	8084.56
511.861	8256.56
511.963	7892.56
512.065	7902.56
512.167	7942.56
512.268	8353.56
512.37	8069.56
512.472	8099.56
512.574	8103.56
512.676	8040.56
512.777	8020.56
512.879	7964.56
512.981	8103.56
513.082	8040.56
513.184	8149.56
513.286	8579.56
513.387	8259.56
513.489	8404.56
513.591	8204.56
513.692	8255.56
513.794	8385.56
513.896	8096.56
513.997	8194.56
514.099	8214.56
514.2	8278.56
514.302	8384.56
514.404	8412.56
514.505	8478.56
514.607	8359.56
514.708	8407.56
514.81	8663.56
514.911	8595.56
515.013	8668.56
515.114	8751.56
515.216	8672.56
515.317	8770.56
515.419	8757.56
515.52	8949.56
515.622	8928.56
515.723	8966.56
515.825	9330.56
515.926	9143.56
516.027	9217.56
516.129	9477.56
516.23	9571.56
516.332	9659.56
516.433	9956.56
516.534	9712.56
516.636	9847.56
516.737	10135.56
516.838	11274.56
516.94	10514.56
517.041	10626.56
517.142	10942.56
517.244	11015.56
517.345	10975.56
517.446	11130.56
517.547	11330.56
517.649	11115.56
517.75	11142.56
517.851	11262.56
517.952	11285.56
518.054	11075.56
518.155	11233.56
518.256	10827.56
518.357	10914.56
518.458	10657.56
518.56	10503.56
518.661	10448.56
518.762	10293.56
518.863	10313.56
518.964	10204.56
519.065	10154.56
519.166	9917.56
519.268	9811.56
519.369	10105.56
519.47	9708.56
519.571	9745.56
519.672	9647.56
519.773	9538.56
519.874	9639.56
519.975	9662.56
520.076	9565.56
520.177	9353.56
520.278	9453.56
520.379	9423.56
520.48	9302.56
520.581	9224.56
520.682	9326.56
520.783	9281.56
520.884	9425.56
520.985	9308.56
521.086	9387.56
521.187	9308.56
521.288	9119.56
521.389	9402.56
521.489	9148.56
521.59	9038.56
521.691	9239.56
521.792	9151.56
521.893	9331.56
521.994	9329.56
522.095	9210.56
522.195	9303.56
522.296	9203.56
522.397	9288.56
522.498	9171.56
522.599	8952.56
522.699	9225.56
522.8	9102.56
522.901	9151.56
523.002	9215.56
523.102	9285.56
523.203	9167.56
523.304	9410.56
523.405	9233.56
523.505	9274.56
523.606	9310.56
523.707	9153.56
523.807	9165.56
523.908	9238.56
524.009	9353.56
524.109	9200.56
524.21	9134.56
524.31	9221.56
524.411	9379.56
524.512	9286.56
524.612	9246.56
524.713	9454.56
524.813	9233.56
524.914	9552.56
525.014	13559.56
525.115	9511.56
525.216	9162.56
525.316	9245.56
525.417	9247.56
525.517	9231.56
525.618	9208.56
525.718	9161.56
525.819	9226.56
525.919	9206.56
526.019	9245.56
526.12	9291.56
526.22	9273.56
526.321	9194.56
526.421	9175.56
526.522	9115.56
526.622	9055.56
526.722	9193.56
526.823	9060.56
526.923	9312.56
527.023	9271.56
527.124	9047.56
527.224	9149.56
527.324	9161.56
527.425	9174.56
527.525	9031.56
527.625	9131.56
527.726	9138.56
527.826	9191.56
527.926	9046.56
528.026	9209.56
528.127	9067.56
528.227	9237.56
528.327	9035.56
528.427	9150.56
528.528	9062.56
528.628	9177.56
528.728	9017.56
528.828	9170.56
528.928	9189.56
529.029	9027.56
529.129	9037.56
529.229	9083.56
529.329	9140.56
529.429	9124.56
529.529	9133.56
529.629	9165.56
529.729	8928.56
529.829	9181.56
529.93	9004.56
530.03	8964.56
530.13	9063.56
530.23	8910.56
530.33	9057.56
530.43	8933.56
530.53	9039.56
530.63	8837.56
530.73	8798.56
530.83	8726.56
530.93	8817.56
531.03	8796.56
531.13	9002.56
531.23	8772.56
531.33	8753.56
531.429	8890.56
531.529	8715.56
531.629	8817.56
531.729	8675.56
531.829	8754.56
531.929	8567.56
532.029	8745.56
532.129	8732.56
532.229	8678.56
532.328	8637.56
532.428	8731.56
532.528	8489.56
532.628	8479.56
532.728	8503.56
532.827	8557.56
532.927	8581.56
533.027	8463.56
533.127	8634.56
533.227	8556.56
533.326	8416.56
533.426	8488.56
533.526	8390.56
533.625	8474.56
533.725	8774.56
533.825	8392.56
533.924	8230.56
534.024	8066.56
534.124	8178.56
534.223	8251.56
534.323	8519.56
534.423	8286.56
534.522	8138.56
534.622	8015.56
534.722	8079.56
534.821	7963.56
534.921	7999.56
535.02	7969.56
535.12	7956.56
535.219	7880.56
535.319	7997.56
535.419	7830.56
535.518	7718.56
535.618	7790.56
535.717	7923.56
535.817	7687.56
535.916	7719.56
536.016	7576.56
536.115	7408.56
536.215	7492.56
536.314	7552.56
536.413	7418.56
536.513	7332.56
536.612	7469.56
536.712	7325.56
536.811	7303.56
536.91	7269.56
537.01	7275.56
537.109	7323.56
537.209	7255.56
537.308	7186.56
537.407	7165.56
537.507	7187.56
537.606	7149.56
537.705	7188.56
537.805	7066.56
537.904	6977.56
538.003	7032.56
538.102	7045.56
538.202	7096.56
538.301	7207.56
538.4	7158.56
538.499	7032.56
538.599	7077.56
538.698	7274.56
538.797	6911.56
538.896	7059.56
538.995	6946.56
539.095	6787.56
539.194	7170.56
539.293	6815.56
539.392	6833.56
539.491	6766.56
539.59	6825.56
539.689	6939.56
539.789	6821.56
539.888	6609.56
539.987	6551.56
540.086	6569.56
540.185	6762.56
540.284	6701.56
540.383	6609.56
540.482	6611.56
540.581	6653.56
540.68	6460.56
540.779	6733.56
540.878	6526.56
540.977	6554.56
541.076	6493.56
541.175	6516.56
541.274	6790.56
541.373	6547.56
541.472	6599.56
541.571	6307.56
541.67	7853.56
541.769	6685.56
541.868	6366.56
541.966	6391.56
542.065	6473.56
542.164	6311.56
542.263	6270.56
542.362	6349.56
542.461	6502.56
542.56	6390.56
542.658	6354.56
542.757	6387.56
542.856	6125.56
542.955	6259.56
543.054	6226.56
543.152	6415.56
543.251	6245.56
543.35	6471.56
543.449	6302.56
543.547	6200.56
543.646	6145.56
543.745	6192.56
543.843	6326.56
543.942	6305.56
544.041	6384.56
544.14	6269.56
544.238	6184.56
544.337	6489.56
544.436	6340.56
544.534	6387.56
544.633	6311.56
544.731	6400.56
544.83	6309.56
544.929	6291.56
545.027	6395.56
545.126	6308.56
545.224	6381.56
545.323	6303.56
545.421	6293.56
545.52	6281.56
545.619	6379.56
545.717	6334.56
545.816	6326.56
545.914	6347.56
546.013	6450.56
546.111	6430.56
546.209	6240.56
546.308	6174.56
546.406	6168.56
546.505	6389.56
546.603	6336.56
546.702	6176.56
546.8	6217.56
546.899	6241.56
546.997	6281.56
547.095	6224.56
547.194	6276.56
547.292	6236.56
547.39	6318.56
547.489	6214.56
547.587	6595.56
547.685	6253.56
547.784	6574.56
547.882	6446.56
547.98	6282.56
548.079	6199.56
548.177	6309.56
548.275	6155.56
548.373	6381.56
548.472	6151.56
548.57	6341.56
548.668	6383.56
548.766	6167.56
548.864	6431.56
548.963	6206.56
549.061	6500.56
549.159	6257.56
549.257	6379.56
549.355	6249.56
549.454	6279.56
549.552	6246.56
549.65	6383.56
549.748	6283.56
549.846	6192.56
549.944	6324.56
550.042	6223.56
550.14	6292.56
550.238	6283.56
550.336	6219.56
550.434	6133.56
550.532	6091.56
550.631	6184.56
550.729	6155.56
550.827	6239.56
550.925	6064.56
551.023	6102.56
551.121	6129.56
551.218	6177.56
551.316	6053.56
551.414	6186.56
551.512	6096.56
551.61	6236.56
551.708	6350.56
551.806	6251.56
551.904	6292.56
552.002	6398.56
552.1	6346.56
552.198	6293.56
552.296	6623.56
552.393	6676.56
552.491	6798.56
552.589	6663.56
552.687	6877.56
552.785	6789.56
552.882	6859.56
552.98	6960.56
553.078	6847.56
553.176	6828.56
553.274	6828.56
553.371	6822.56
553.469	6832.56
553.567	6762.56
553.665	6665.56
553.762	6963.56
553.86	6671.56
553.958	6522.56
554.055	6450.56
554.153	6618.56
554.251	6474.56
554.348	6447.56
554.446	6239.56
554.544	6318.56
554.641	6536.56
554.739	6235.56
554.837	6221.56
554.934	6143.56
555.032	6064.56
555.129	6050.56
555.227	6340.56
555.324	9961.56
555.422	6315.56
555.519	6044.56
555.617	5925.56
555.715	5820.56
555.812	6411.56
555.91	5778.56
556.007	5886.56
556.105	5825.56
556.202	5842.56
556.299	5799.56
556.397	5840.56
556.494	5818.56
556.592	5742.56
556.689	5789.56
556.787	5799.56
556.884	5740.56
556.981	5781.56
557.079	5812.56
557.176	5737.56
557.273	5733.56
557.371	5957.56
557.468	5744.56
557.566	5694.56
557.663	5766.56
557.76	5859.56
557.857	5599.56
557.955	5675.56
558.052	5855.56
558.149	5809.56
558.247	5983.56
558.344	5760.56
558.441	5616.56
558.538	5639.56
558.636	5756.56
558.733	5670.56
558.83	5790.56
558.927	5720.56
559.024	5655.56
559.122	5678.56
559.219	5755.56
559.316	5959.56
559.413	5944.56
559.51	5771.56
559.607	5830.56
559.704	5715.56
559.801	5779.56
559.899	5737.56
559.996	6079.56
560.093	5918.56
560.19	5800.56
560.287	5834.56
560.384	6013.56
560.481	5852.56
560.578	5801.56
560.675	5746.56
560.772	5871.56
560.869	5959.56
560.966	5954.56
561.063	5851.56
561.16	5987.56
561.257	5820.56
561.354	5841.56
561.451	5894.56
561.548	5936.56
561.645	6015.56
561.742	5917.56
561.838	6045.56
561.935	5986.56
562.032	5814.56
562.129	5985.56
562.226	5957.56
562.323	5941.56
562.42	6130.56
562.516	5929.56
562.613	5889.56
562.71	6022.56
562.807	6864.56
562.904	6047.56
563	6108.56
563.097	6210.56
563.194	6185.56
563.291	6026.56
563.387	6141.56
563.484	6156.56
563.581	6144.56
563.678	6176.56
563.774	6699.56
563.871	6433.56
563.968	6299.56
564.064	6443.56
564.161	6378.56
564.258	6394.56
564.354	6574.56
564.451	6603.56
564.548	6652.56
564.644	6659.56
564.741	6690.56
564.837	6660.56
564.934	6802.56
565.031	6888.56
565.127	6944.56
565.224	7195.56
565.32	7321.56
565.417	7224.56
565.513	7434.56
565.61	7612.56
565.706	7647.56
565.803	7894.56
565.899	7949.56
565.996	8157.56
566.092	8283.56
566.189	8465.56
566.285	8586.56
566.382	8803.56
566.478	9166.56
566.574	9320.56
566.671	9165.56
566.767	9291.56
566.864	9350.56
566.96	9583.56
567.056	9461.56
567.153	9934.56
567.249	9731.56
567.345	9942.56
567.442	10356.56
567.538	10238.56
567.634	10343.56
567.731	10442.56
567.827	10400.56
567.923	10440.56
568.019	9998.56
568.116	9684.56
568.212	9351.56
568.308	9214.56
568.404	8985.56
568.501	8717.56
568.597	8409.56
568.693	8266.56
568.789	8526.56
568.885	7703.56
568.982	7652.56
569.078	7538.56
569.174	7391.56
569.27	7192.56
569.366	7297.56
569.462	7006.56
569.558	6803.56
569.655	6916.56
569.751	6656.56
569.847	6624.56
569.943	6543.56
570.039	6420.56
570.135	6984.56
570.231	6589.56
570.327	6580.56
570.423	6470.56
570.519	6470.56
570.615	6503.56
570.711	6584.56
570.807	6549.56
570.903	6466.56
570.999	6434.56
571.095	6365.56
571.191	6236.56
571.287	6241.56
571.383	6181.56
571.479	6196.56
571.574	6051.56
571.67	5864.56
571.766	6067.56
571.862	5781.56
571.958	5667.56
572.054	5796.56
572.15	5612.56
572.246	5484.56
572.341	5565.56
572.437	5559.56
572.533	5510.56
572.629	5510.56
572.725	5445.56
572.82	5391.56
572.916	5483.56
573.012	5395.56
573.108	5420.56
573.203	5215.56
573.299	5193.56
573.395	5207.56
573.49	5086.56
573.586	5020.56
573.682	5179.56
573.778	5334.56
573.873	5066.56
573.969	5076.56
574.065	5029.56
574.16	4954.56
574.256	5070.56
574.351	5111.56
574.447	4965.56
574.543	5089.56
574.638	5173.56
574.734	5098.56
574.829	5156.56
574.925	5004.56
575.02	4935.56
575.116	4926.56
575.212	4891.56
575.307	5006.56
575.403	4763.56
575.498	4751.56
575.594	4755.56
575.689	4787.56
575.784	4707.56
575.88	4819.56
575.975	4722.56
576.071	4560.56
576.166	4637.56
576.262	4591.56
576.357	4642.56
576.452	4803.56
576.548	4544.56
576.643	4611.56
576.739	4599.56
576.834	4455.56
576.929	4550.56
577.025	5163.56
577.12	4400.56
577.215	4370.56
577.311	4415.56
577.406	4619.56
577.501	4492.56
577.597	4318.56
577.692	4429.56
577.787	4332.56
577.882	4209.56
577.978	4362.56
578.073	4308.56
578.168	4170.56
578.263	4144.56
578.358	4188.56
578.454	4091.56
578.549	4145.56
578.644	4034.56
578.739	4157.56
578.834	4007.56
578.929	4050.56
579.025	4049.56
579.12	4170.56
579.215	4243.56
579.31	4112.56
579.405	3865.56
579.5	4015.56
579.595	4053.56
579.69	3879.56
579.785	4003.56
579.88	3988.56
579.975	3906.56
580.07	3812.56
580.165	3856.56
580.26	4031.56
580.355	3855.56
580.45	3890.56
580.545	3738.56
580.64	3757.56
580.735	3915.56
580.83	3796.56
580.925	3664.56
581.02	3705.56
581.115	3783.56
581.21	3624.56
581.305	3732.56
581.4	3726.56
581.495	3563.56
581.589	3706.56
581.684	3649.56
581.779	3730.56
581.874	3567.56
581.969	3648.56
582.064	3566.56
582.158	3587.56
582.253	3566.56
582.348	3607.56
582.443	3582.56
582.537	3540.56
582.632	3789.56
582.727	3636.56
582.822	3430.56
582.916	3451.56
583.011	3443.56
583.106	3492.56
583.201	3414.56
583.295	3489.56
583.39	3343.56
583.485	3373.56
583.579	5743.56
583.674	3530.56
583.769	3614.56
583.863	3441.56
583.958	3367.56
584.052	3275.56
584.147	3268.56
584.242	3264.56
584.336	3337.56
584.431	3453.56
584.525	3321.56
584.62	3445.56
584.714	3325.56
584.809	3322.56
584.903	3274.56
584.998	3348.56
585.092	3258.56
585.187	3270.56
585.281	3189.56
585.376	3250.56
585.47	3234.56
585.565	3214.56
585.659	3125.56
585.754	3240.56
585.848	3237.56
585.942	3197.56
586.037	3206.56
586.131	4940.56
586.226	3281.56
586.32	3253.56
586.414	3058.56
586.509	3205.56
586.603	3221.56
586.697	3056.56
586.792	3062.56
586.886	3086.56
586.98	3114.56
587.075	3094.56
587.169	3106.56
587.263	3263.56
587.357	3054.56
587.452	2990.56
587.546	3131.56
587.64	2934.56
587.734	3112.56
587.829	3056.56
587.923	2961.56
588.017	2978.56
588.111	3036.56
588.205	3141.56
588.3	3006.56
588.394	2950.56
588.488	3106.56
588.582	3115.56
588.676	3274.56
588.77	4024.56
588.864	6009.56
588.958	6280.56
589.052	5425.56
589.147	4179.56
589.241	3631.56
589.335	3517.56
589.429	4524.56
589.523	5155.56
589.617	4935.56
589.711	3984.56
589.805	3359.56
589.899	3222.56
589.993	3024.56
590.087	2985.56
590.181	2903.56
590.275	3055.56
590.369	2939.56
590.462	2890.56
590.556	2972.56
590.65	2917.56
590.744	2922.56
590.838	2892.56
590.932	3002.56
591.026	2999.56
591.12	3093.56
591.214	3078.56
591.307	2996.56
591.401	2917.56
591.495	2990.56
591.589	2918.56
591.683	2950.56
591.777	3134.56
591.87	3394.56
591.964	3106.56
592.058	3119.56
592.152	3175.56
592.245	3073.56
592.339	3262.56
592.433	3316.56
592.527	3146.56
592.62	3167.56
592.714	3328.56
592.808	3311.56
592.901	3204.56
592.995	3235.56
593.089	3512.56
593.182	3286.56
593.276	3277.56
593.37	3242.56
593.463	3237.56
593.557	3227.56
593.65	3349.56
593.744	3320.56
593.837	3372.56
593.931	3291.56
594.025	6956.56
594.118	3467.56
594.212	3267.56
594.305	3155.56
594.399	3253.56
594.492	3402.56
594.586	3131.56
594.679	3000.56
594.773	2950.56
594.866	3063.56
594.96	2920.56
595.053	2778.56
595.146	2972.56
595.24	2812.56
595.333	2714.56
595.427	2710.56
595.52	2683.56
595.614	2767.56
595.707	2719.56
595.8	2675.56
595.894	2629.56
595.987	2549.56
596.08	2511.56
596.174	2944.56
596.267	2670.56
596.36	2718.56
596.454	2562.56
596.547	2530.56
596.64	2462.56
596.733	2391.56
596.827	2515.56
596.92	2412.56
597.013	2321.56
597.106	2290.56
597.2	2293.56
597.293	2368.56
597.386	2555.56
597.479	2416.56
597.572	2383.56
597.666	2242.56
597.759	2305.56
597.852	2397.56
597.945	2186.56
598.038	2203.56
598.131	2267.56
598.224	2237.56
598.317	2331.56
598.411	2287.56
598.504	2203.56
598.597	2293.56
598.69	2170.56
598.783	2211.56
598.876	2197.56
598.969	2190.56
599.062	2177.56
599.155	2247.56
599.248	2166.56
599.341	2244.56
599.434	2165.56
599.527	2219.56
599.62	2158.56
599.713	2105.56
599.806	2135.56
599.899	2348.56
599.991	2131.56
600.084	2382.56
600.177	2118.56
600.27	2131.56
600.363	2299.56
600.456	2112.56
600.549	2147.56
600.642	2065.56
600.734	2094.56
600.827	2051.56
600.92	2226.56
601.013	2097.56
601.106	2182.56
601.199	2157.56
601.291	2134.56
601.384	2093.56
601.477	2398.56
601.57	2149.56
601.662	2055.56
601.755	2123.56
601.848	2147.56
601.94	2039.56
602.033	2179.56
602.126	2091.56
602.219	2060.56
602.311	2160.56
602.404	2082.56
602.497	2056.56
602.589	1993.56
602.682	2105.56
602.774	2055.56
602.867	2070.56
602.96	2013.56
603.052	2085.56
603.145	2008.56
603.237	2008.56
603.33	2039.56
603.422	2092.56
603.515	1956.56
603.608	2106.56
603.7	1999.56
603.793	1988.56
603.885	2077.56
603.978	1961.56
604.07	1966.56
604.163	1998.56
604.255	2003.56
604.347	1954.56
604.44	1867.56
604.532	2005.56
604.625	2007.56
604.717	1977.56
604.81	2117.56
604.902	1965.56
604.994	1885.56
605.087	1953.56
605.179	1917.56
605.271	1986.56
605.364	2010.56
605.456	2055.56
605.548	1885.56
605.641	1919.56
605.733	1919.56
605.825	1964.56
605.918	1871.56
606.01	2125.56
606.102	2389.56
606.194	1957.56
606.287	2176.56
606.379	1882.56
606.471	1915.56
606.563	1961.56
606.655	1939.56
606.748	2036.56
606.84	1923.56
606.932	2014.56
607.024	1873.56
607.116	1883.56
607.208	1930.56
607.301	1878.56
607.393	1892.56
607.485	1858.56
607.577	1878.56
607.669	1940.56
607.761	1932.56
607.853	2170.56
607.945	1822.56
608.037	1801.56
608.129	1909.56
608.221	1856.56
608.313	1816.56
608.405	2007.56
608.497	1877.56
608.589	1792.56
608.681	1929.56
608.773	1927.56
608.865	1908.56
608.957	1927.56
609.049	1870.56
609.141	1967.56
609.233	1862.56
609.325	1814.56
609.417	1842.56
609.509	1953.56
609.601	2064.56
609.693	1998.56
609.784	1828.56
609.876	1898.56
609.968	1825.56
610.06	4352.56
610.152	2151.56
610.244	2623.56
610.335	1913.56
610.427	1783.56
610.519	1837.56
610.611	1767.56
610.702	1757.56
610.794	1864.56
610.886	1876.56
610.978	1745.56
611.069	2320.56
611.161	1703.56
611.253	1812.56
611.344	1641.56
611.436	1595.56
611.528	1664.56
611.62	1610.56
611.711	1626.56
611.803	1543.56
611.894	1503.56
611.986	1564.56
612.078	1542.56
612.169	1540.56
612.261	1583.56
612.352	1430.56
612.444	1403.56
612.536	1555.56
612.627	1378.56
612.719	1323.56
612.81	1350.56
612.902	1262.56
612.993	1316.56
613.085	1323.56
613.176	1249.56
613.268	1233.56
613.359	1235.56
613.451	1274.56
613.542	1260.56
613.634	1161.56
613.725	1238.56
613.816	1279.56
613.908	1120.56
613.999	1118.56
614.091	1021.56
614.182	955.56
614.273	1088.56
614.365	1033.56
614.456	965.56
614.547	954.56
614.639	918.56
614.73	905.56
614.821	993.56
614.913	859.56
615.004	799.56
615.095	766.56
615.187	798.56
