Data from 14g_HRC06701__6__189.txt Node

Date: Thu Apr 18 01:58:00 CDT 2024
User: Estudiantes 2
Spectrometer: HR+C0670
Trigger mode: 4
Integration Time (sec): 1.000000E0
Scans to average: 1
Electric dark correction enabled: true
Nonlinearity correction enabled: false
Boxcar width: 0
XAxis mode: Wavelengths
Number of Pixels in Spectrum: 2048
>>>>>Begin Spectral Data<<<<<
407.81	-131.44
407.921	-131.44
408.032	-131.44
408.143	-105.44
408.254	-87.44
408.365	35.56
408.476	233.56
408.587	-24.44
408.699	-40.44
408.81	-52.44
408.921	-26.44
409.032	-19.44
409.143	20.56
409.254	15.56
409.365	133.56
409.476	-58.44
409.587	13.56
409.698	93.56
409.809	65.56
409.92	-41.44
410.031	-16.44
410.142	44.56
410.253	20.56
410.364	83.56
410.475	887.56
410.585	4132.56
410.696	4456.56
410.807	4365.56
410.918	4383.56
411.029	4496.56
411.14	4542.56
411.251	4515.56
411.362	4505.56
411.472	4604.56
411.583	4494.56
411.694	4672.56
411.805	4663.56
411.916	4610.56
412.026	4604.56
412.137	4647.56
412.248	4592.56
412.359	4606.56
412.47	4528.56
412.58	4535.56
412.691	4536.56
412.802	4507.56
412.912	4477.56
413.023	4537.56
413.134	4442.56
413.245	4509.56
413.355	4508.56
413.466	4497.56
413.577	4494.56
413.687	4655.56
413.798	4344.56
413.909	4644.56
414.019	4532.56
414.13	4548.56
414.24	4446.56
414.351	4563.56
414.462	4712.56
414.572	4537.56
414.683	4508.56
414.793	4577.56
414.904	4844.56
415.014	4486.56
415.125	4422.56
415.235	4484.56
415.346	4625.56
415.456	4713.56
415.567	4523.56
415.677	4461.56
415.788	4655.56
415.898	4487.56
416.009	4401.56
416.119	4620.56
416.23	4472.56
416.34	4409.56
416.45	4494.56
416.561	5411.56
416.671	4425.56
416.782	4473.56
416.892	4640.56
417.002	4550.56
417.113	4619.56
417.223	4608.56
417.333	4544.56
417.444	4661.56
417.554	4663.56
417.664	4855.56
417.775	4587.56
417.885	4777.56
417.995	4807.56
418.106	4969.56
418.216	4828.56
418.326	4970.56
418.436	5056.56
418.547	4980.56
418.657	5037.56
418.767	5140.56
418.877	5040.56
418.987	5219.56
419.098	5178.56
419.208	5129.56
419.318	5120.56
419.428	5313.56
419.538	5053.56
419.648	5237.56
419.759	5258.56
419.869	5212.56
419.979	5141.56
420.089	5238.56
420.199	5150.56
420.309	5111.56
420.419	5303.56
420.529	5220.56
420.639	5686.56
420.749	5272.56
420.859	5406.56
420.969	5341.56
421.079	5578.56
421.189	5414.56
421.299	5277.56
421.409	5342.56
421.519	5530.56
421.629	5520.56
421.739	5401.56
421.849	5469.56
421.959	5464.56
422.069	5488.56
422.179	5632.56
422.289	5641.56
422.399	5736.56
422.509	5829.56
422.619	8450.56
422.729	6050.56
422.838	5783.56
422.948	5942.56
423.058	5774.56
423.168	5878.56
423.278	6002.56
423.388	6095.56
423.498	6179.56
423.607	6143.56
423.717	6511.56
423.827	6501.56
423.937	6343.56
424.046	6319.56
424.156	6405.56
424.266	6307.56
424.376	6612.56
424.485	6569.56
424.595	6509.56
424.705	6492.56
424.815	6528.56
424.924	6972.56
425.034	6659.56
425.144	6531.56
425.253	6567.56
425.363	6823.56
425.473	6841.56
425.582	6518.56
425.692	6766.56
425.801	6672.56
425.911	6838.56
426.021	6862.56
426.13	7100.56
426.24	7056.56
426.349	7006.56
426.459	7139.56
426.568	7011.56
426.678	7185.56
426.787	7263.56
426.897	7234.56
427.006	7236.56
427.116	7319.56
427.225	7306.56
427.335	7356.56
427.444	7287.56
427.554	7279.56
427.663	7399.56
427.773	7295.56
427.882	7610.56
427.992	7581.56
428.101	7621.56
428.21	7510.56
428.32	7877.56
428.429	7696.56
428.539	8016.56
428.648	7786.56
428.757	7702.56
428.867	7863.56
428.976	8034.56
429.085	8007.56
429.195	8012.56
429.304	8003.56
429.413	8051.56
429.523	8079.56
429.632	8049.56
429.741	8104.56
429.85	8058.56
429.96	8215.56
430.069	8254.56
430.178	8305.56
430.287	8549.56
430.397	8406.56
430.506	8360.56
430.615	8386.56
430.724	8612.56
430.833	8562.56
430.943	8563.56
431.052	8505.56
431.161	8641.56
431.27	8723.56
431.379	8736.56
431.488	9100.56
431.597	8906.56
431.706	9084.56
431.816	9163.56
431.925	9000.56
432.034	9112.56
432.143	9099.56
432.252	8974.56
432.361	8931.56
432.47	9032.56
432.579	9082.56
432.688	8903.56
432.797	8980.56
432.906	8947.56
433.015	9154.56
433.124	9234.56
433.233	9224.56
433.342	9069.56
433.451	9223.56
433.56	9147.56
433.669	9172.56
433.778	9159.56
433.886	9303.56
433.995	9272.56
434.104	9526.56
434.213	9556.56
434.322	9497.56
434.431	9624.56
434.54	9925.56
434.649	10116.56
434.757	10185.56
434.866	9864.56
434.975	9957.56
435.084	9793.56
435.193	9525.56
435.301	9589.56
435.41	9535.56
435.519	9655.56
435.628	8963.56
435.737	9057.56
435.845	8839.56
435.954	8631.56
436.063	8794.56
436.171	8664.56
436.28	8650.56
436.389	8793.56
436.498	8560.56
436.606	8667.56
436.715	8820.56
436.823	8515.56
436.932	8364.56
437.041	8359.56
437.149	8420.56
437.258	8138.56
437.367	7914.56
437.475	8170.56
437.584	8416.56
437.692	8075.56
437.801	9655.56
437.91	8052.56
438.018	7845.56
438.127	7886.56
438.235	8093.56
438.344	8108.56
438.452	7946.56
438.561	7852.56
438.669	7946.56
438.778	7745.56
438.886	7862.56
438.995	7828.56
439.103	7912.56
439.212	7880.56
439.32	7943.56
439.428	7763.56
439.537	7872.56
439.645	8131.56
439.754	7983.56
439.862	7796.56
439.97	8083.56
440.079	7972.56
440.187	7891.56
440.295	8195.56
440.404	8083.56
440.512	8108.56
440.62	8180.56
440.729	8336.56
440.837	8286.56
440.945	9010.56
441.054	8580.56
441.162	8532.56
441.27	8705.56
441.378	8918.56
441.487	8668.56
441.595	9100.56
441.703	9002.56
441.811	8678.56
441.92	8529.56
442.028	8576.56
442.136	8622.56
442.244	8486.56
442.352	8481.56
442.461	8267.56
442.569	8372.56
442.677	8363.56
442.785	8481.56
442.893	8500.56
443.001	8352.56
443.109	8228.56
443.217	8364.56
443.325	8403.56
443.434	9130.56
443.542	8752.56
443.65	8574.56
443.758	8789.56
443.866	8876.56
443.974	9227.56
444.082	9135.56
444.19	9321.56
444.298	9328.56
444.406	9536.56
444.514	9836.56
444.622	9629.56
444.73	9614.56
444.838	9516.56
444.946	9460.56
445.054	9347.56
445.161	9220.56
445.269	9139.56
445.377	8904.56
445.485	9036.56
445.593	8870.56
445.701	8791.56
445.809	8776.56
445.917	8746.56
446.025	8586.56
446.132	8823.56
446.24	8806.56
446.348	8631.56
446.456	8511.56
446.564	8561.56
446.671	8653.56
446.779	8545.56
446.887	8548.56
446.995	8526.56
447.102	8605.56
447.21	8609.56
447.318	8515.56
447.426	8360.56
447.533	8692.56
447.641	9828.56
447.749	8632.56
447.856	8349.56
447.964	8505.56
448.072	8684.56
448.179	8537.56
448.287	8684.56
448.395	8629.56
448.502	8408.56
448.61	8571.56
448.718	8599.56
448.825	8652.56
448.933	8607.56
449.04	8732.56
449.148	8753.56
449.256	8636.56
449.363	8756.56
449.471	8986.56
449.578	8902.56
449.686	8808.56
449.793	9159.56
449.901	8942.56
450.008	9055.56
450.116	9193.56
450.223	9269.56
450.331	9431.56
450.438	9429.56
450.546	9562.56
450.653	9583.56
450.76	9833.56
450.868	9828.56
450.975	9913.56
451.083	9861.56
451.19	9989.56
451.297	9766.56
451.405	9956.56
451.512	10102.56
451.619	10095.56
451.727	10112.56
451.834	10171.56
451.941	10120.56
452.049	10029.56
452.156	10132.56
452.263	10365.56
452.371	10221.56
452.478	10247.56
452.585	10478.56
452.692	10264.56
452.8	10346.56
452.907	10580.56
453.014	10467.56
453.121	10561.56
453.229	10607.56
453.336	10556.56
453.443	10564.56
453.55	10670.56
453.657	10519.56
453.765	10901.56
453.872	10634.56
453.979	10838.56
454.086	10941.56
454.193	10932.56
454.3	10694.56
454.407	10927.56
454.514	11176.56
454.621	10976.56
454.729	11063.56
454.836	10946.56
454.943	11125.56
455.05	11047.56
455.157	11184.56
455.264	11136.56
455.371	11202.56
455.478	11187.56
455.585	11740.56
455.692	11556.56
455.799	11651.56
455.906	11536.56
456.013	11458.56
456.12	11481.56
456.227	11550.56
456.334	11817.56
456.44	11864.56
456.547	11742.56
456.654	11751.56
456.761	12040.56
456.868	11984.56
456.975	12059.56
457.082	12078.56
457.189	11999.56
457.296	12153.56
457.402	12236.56
457.509	12191.56
457.616	12367.56
457.723	12664.56
457.83	12587.56
457.936	12645.56
458.043	13011.56
458.15	12757.56
458.257	12948.56
458.363	13101.56
458.47	13324.56
458.577	13513.56
458.684	13479.56
458.79	14044.56
458.897	14059.56
459.004	14279.56
459.11	14143.56
459.217	14376.56
459.324	14561.56
459.43	14561.56
459.537	14561.56
459.644	14561.56
459.75	14561.56
459.857	14561.56
459.964	14561.56
460.07	14561.56
460.177	14561.56
460.283	14561.56
460.39	14561.56
460.496	14561.56
460.603	14561.56
460.71	14561.56
460.816	14561.56
460.923	14561.56
461.029	14561.56
461.136	14561.56
461.242	14561.56
461.349	14561.56
461.455	14561.56
461.562	14561.56
461.668	14561.56
461.774	14561.56
461.881	14561.56
461.987	14561.56
462.094	14561.56
462.2	14561.56
462.307	14561.56
462.413	14561.56
462.519	14561.56
462.626	14561.56
462.732	14561.56
462.838	14561.56
462.945	14561.56
463.051	14561.56
463.157	14561.56
463.264	14561.56
463.37	14561.56
463.476	14561.56
463.583	14561.56
463.689	14561.56
463.795	14561.56
463.901	14561.56
464.008	14561.56
464.114	14561.56
464.22	14561.56
464.326	14561.56
464.433	14561.56
464.539	14561.56
464.645	14561.56
464.751	14561.56
464.857	14561.56
464.963	14561.56
465.07	14561.56
465.176	14493.56
465.282	14174.56
465.388	14034.56
465.494	13716.56
465.6	13396.56
465.706	13165.56
465.812	13001.56
465.918	12972.56
466.024	12908.56
466.131	12547.56
466.237	12309.56
466.343	12113.56
466.449	12044.56
466.555	11880.56
466.661	11699.56
466.767	11598.56
466.873	11612.56
466.979	11626.56
467.085	11609.56
467.191	11573.56
467.296	11380.56
467.402	11268.56
467.508	11172.56
467.614	11323.56
467.72	10882.56
467.826	10929.56
467.932	10730.56
468.038	10747.56
468.144	10746.56
468.25	10405.56
468.355	10457.56
468.461	10640.56
468.567	10366.56
468.673	10418.56
468.779	10360.56
468.885	10348.56
468.99	10244.56
469.096	10321.56
469.202	10430.56
469.308	10399.56
469.413	10517.56
469.519	10565.56
469.625	10440.56
469.731	10528.56
469.836	10629.56
469.942	10655.56
470.048	10469.56
470.153	10551.56
470.259	10486.56
470.365	10573.56
470.47	10545.56
470.576	10448.56
470.682	10297.56
470.787	10199.56
470.893	10035.56
470.999	10072.56
471.104	9915.56
471.21	9806.56
471.315	9643.56
471.421	9715.56
471.527	9781.56
471.632	9544.56
471.738	9262.56
471.843	9312.56
471.949	9304.56
472.054	9404.56
472.16	9188.56
472.265	9187.56
472.371	8982.56
472.476	8879.56
472.582	9205.56
472.687	9010.56
472.793	8895.56
472.898	8945.56
473.003	8812.56
473.109	8736.56
473.214	8680.56
473.32	8685.56
473.425	8718.56
473.53	8628.56
473.636	8652.56
473.741	8563.56
473.847	8596.56
473.952	8651.56
474.057	8611.56
474.163	8654.56
474.268	8654.56
474.373	8645.56
474.478	8494.56
474.584	8477.56
474.689	8561.56
474.794	8542.56
474.9	8843.56
475.005	8422.56
475.11	8658.56
475.215	8419.56
475.321	8542.56
475.426	8666.56
475.531	8703.56
475.636	8652.56
475.741	8572.56
475.846	8939.56
475.952	8870.56
476.057	8744.56
476.162	8831.56
476.267	8895.56
476.372	9105.56
476.477	8763.56
476.582	8990.56
476.687	8883.56
476.793	9007.56
476.898	9003.56
477.003	9047.56
477.108	8878.56
477.213	9087.56
477.318	9290.56
477.423	9272.56
477.528	9440.56
477.633	9524.56
477.738	9577.56
477.843	9324.56
477.948	9627.56
478.053	9721.56
478.158	9556.56
478.263	9853.56
478.368	9882.56
478.473	10050.56
478.578	10051.56
478.682	10058.56
478.787	10163.56
478.892	10067.56
478.997	10282.56
479.102	10119.56
479.207	10086.56
479.312	10269.56
479.417	10415.56
479.521	10260.56
479.626	10447.56
479.731	10402.56
479.836	10492.56
479.941	10785.56
480.045	10716.56
480.15	10851.56
480.255	10831.56
480.36	10907.56
480.465	10899.56
480.569	11013.56
480.674	10820.56
480.779	10540.56
480.883	10590.56
480.988	10615.56
481.093	10723.56
481.197	10421.56
481.302	10617.56
481.407	10585.56
481.511	11889.56
481.616	10558.56
481.721	10476.56
481.825	10664.56
481.93	10547.56
482.035	10535.56
482.139	10596.56
482.244	10693.56
482.348	10709.56
482.453	10781.56
482.557	10842.56
482.662	10756.56
482.767	10776.56
482.871	10828.56
482.976	10900.56
483.08	11118.56
483.185	11127.56
483.289	11206.56
483.394	11146.56
483.498	11223.56
483.603	11086.56
483.707	11301.56
483.811	11481.56
483.916	11534.56
484.02	11489.56
484.125	11815.56
484.229	11754.56
484.333	11702.56
484.438	11811.56
484.542	11854.56
484.647	12068.56
484.751	12180.56
484.855	12252.56
484.96	12114.56
485.064	12455.56
485.168	12507.56
485.273	12326.56
485.377	12607.56
485.481	12923.56
485.585	12641.56
485.69	12781.56
485.794	12815.56
485.898	12736.56
486.002	12867.56
486.107	12919.56
486.211	12895.56
486.315	13020.56
486.419	13021.56
486.524	12917.56
486.628	12977.56
486.732	13035.56
486.836	12975.56
486.94	13192.56
487.044	12940.56
487.148	13065.56
487.253	12983.56
487.357	13120.56
487.461	13206.56
487.565	13133.56
487.669	13107.56
487.773	12944.56
487.877	13132.56
487.981	13051.56
488.085	13108.56
488.189	13029.56
488.293	13096.56
488.397	13354.56
488.501	13167.56
488.605	13048.56
488.709	13088.56
488.813	13102.56
488.917	13180.56
489.021	13174.56
489.125	13342.56
489.229	13182.56
489.333	13400.56
489.437	13243.56
489.541	13257.56
489.645	13102.56
489.749	13255.56
489.853	13384.56
489.956	13254.56
490.06	13344.56
490.164	13460.56
490.268	13306.56
490.372	13452.56
490.476	13262.56
490.579	13280.56
490.683	13923.56
490.787	13433.56
490.891	13359.56
490.995	13262.56
491.098	13215.56
491.202	13362.56
491.306	13452.56
491.41	13198.56
491.513	13372.56
491.617	13431.56
491.721	13572.56
491.824	13454.56
491.928	13370.56
492.032	13562.56
492.136	13358.56
492.239	13463.56
492.343	13426.56
492.446	13826.56
492.55	13376.56
492.654	13364.56
492.757	13493.56
492.861	13448.56
492.965	13345.56
493.068	13579.56
493.172	13386.56
493.275	13539.56
493.379	13596.56
493.482	13627.56
493.586	13661.56
493.689	13740.56
493.793	13583.56
493.896	13718.56
494	13629.56
494.103	13736.56
494.207	13906.56
494.31	13952.56
494.414	13574.56
494.517	13511.56
494.621	13294.56
494.724	13462.56
494.828	13432.56
494.931	13372.56
495.034	13416.56
495.138	13595.56
495.241	13300.56
495.345	14110.56
495.448	13479.56
495.551	13223.56
495.655	13345.56
495.758	13400.56
495.861	13232.56
495.965	13405.56
496.068	13504.56
496.171	13500.56
496.274	13443.56
496.378	13348.56
496.481	13426.56
496.584	13597.56
496.687	13777.56
496.791	13675.56
496.894	13805.56
496.997	13764.56
497.1	13948.56
497.204	13956.56
497.307	14029.56
497.41	14290.56
497.513	14378.56
497.616	14447.56
497.719	14561.56
497.823	14561.56
497.926	14561.56
498.029	14561.56
498.132	14561.56
498.235	14561.56
498.338	14561.56
498.441	14561.56
498.544	14561.56
498.647	14561.56
498.75	14561.56
498.853	14561.56
498.956	14561.56
499.059	14561.56
499.163	14561.56
499.266	14561.56
499.369	14561.56
499.471	14561.56
499.574	14561.56
499.677	14561.56
499.78	14561.56
499.883	14561.56
499.986	14561.56
500.089	14561.56
500.192	14561.56
500.295	14561.56
500.398	14561.56
500.501	14561.56
500.604	14561.56
500.707	14561.56
500.809	14561.56
500.912	14561.56
501.015	14561.56
501.118	14561.56
501.221	14561.56
501.324	14561.56
501.426	14561.56
501.529	14561.56
501.632	14561.56
501.735	14561.56
501.837	14561.56
501.94	14561.56
502.043	14561.56
502.146	14561.56
502.248	14561.56
502.351	14561.56
502.454	14531.56
502.557	14278.56
502.659	14057.56
502.762	13570.56
502.865	13458.56
502.967	13195.56
503.07	12936.56
503.173	12772.56
503.275	12760.56
503.378	12563.56
503.48	12298.56
503.583	12422.56
503.686	12054.56
503.788	12455.56
503.891	12228.56
503.993	12318.56
504.096	12033.56
504.198	12058.56
504.301	12018.56
504.403	11980.56
504.506	11909.56
504.608	11699.56
504.711	11532.56
504.813	11315.56
504.916	11188.56
505.018	10937.56
505.121	10611.56
505.223	10704.56
505.326	10528.56
505.428	10456.56
505.531	10108.56
505.633	10065.56
505.735	9934.56
505.838	9839.56
505.94	9823.56
506.042	9738.56
506.145	9743.56
506.247	9690.56
506.35	9670.56
506.452	9552.56
506.554	9593.56
506.656	9612.56
506.759	9358.56
506.861	9443.56
506.963	9351.56
507.066	9352.56
507.168	9423.56
507.27	9281.56
507.372	9005.56
507.475	9252.56
507.577	9135.56
507.679	8946.56
507.781	8910.56
507.883	8898.56
507.986	8900.56
508.088	8807.56
508.19	8781.56
508.292	8818.56
508.394	8662.56
508.496	8793.56
508.598	8788.56
508.701	8720.56
508.803	8646.56
508.905	8637.56
509.007	8744.56
509.109	8689.56
509.211	8692.56
509.313	8574.56
509.415	8450.56
509.517	8617.56
509.619	8523.56
509.721	8515.56
509.823	8530.56
509.925	8743.56
510.027	8382.56
510.129	8462.56
510.231	8517.56
510.333	8317.56
510.435	8409.56
510.537	8540.56
510.639	8593.56
510.741	8378.56
510.843	8405.56
510.945	8377.56
511.047	8553.56
511.148	8447.56
511.25	8435.56
511.352	8496.56
511.454	8472.56
511.556	8467.56
511.658	8444.56
511.76	8464.56
511.861	8605.56
511.963	8436.56
512.065	8581.56
512.167	8348.56
512.268	8894.56
512.37	8495.56
512.472	8475.56
512.574	8547.56
512.676	8664.56
512.777	8520.56
512.879	8443.56
512.981	8596.56
513.082	8468.56
513.184	8565.56
513.286	9021.56
513.387	8697.56
513.489	8813.56
513.591	8631.56
513.692	8720.56
513.794	8799.56
513.896	8667.56
513.997	8658.56
514.099	8690.56
514.2	8798.56
514.302	8842.56
514.404	8724.56
514.505	8819.56
514.607	8981.56
514.708	9018.56
514.81	9092.56
514.911	9052.56
515.013	9083.56
515.114	9221.56
515.216	9176.56
515.317	9261.56
515.419	9342.56
515.52	9469.56
515.622	9402.56
515.723	9456.56
515.825	9704.56
515.926	9741.56
516.027	9767.56
516.129	9884.56
516.23	10088.56
516.332	10048.56
516.433	10361.56
516.534	10643.56
516.636	10570.56
516.737	10699.56
516.838	11944.56
516.94	11287.56
517.041	11220.56
517.142	11719.56
517.244	11861.56
517.345	11636.56
517.446	11995.56
517.547	12058.56
517.649	11998.56
517.75	11956.56
517.851	11864.56
517.952	12060.56
518.054	11820.56
518.155	11691.56
518.256	11401.56
518.357	11445.56
518.458	11157.56
518.56	11102.56
518.661	11056.56
518.762	10888.56
518.863	11070.56
518.964	10718.56
519.065	10559.56
519.166	10581.56
519.268	10320.56
519.369	10644.56
519.47	10176.56
519.571	10293.56
519.672	10200.56
519.773	10208.56
519.874	10167.56
519.975	10038.56
520.076	10061.56
520.177	10113.56
520.278	10031.56
520.379	9868.56
520.48	9901.56
520.581	9767.56
520.682	9629.56
520.783	9845.56
520.884	9887.56
520.985	9731.56
521.086	9787.56
521.187	9755.56
521.288	9575.56
521.389	9644.56
521.489	9640.56
521.59	9517.56
521.691	9634.56
521.792	9543.56
521.893	9705.56
521.994	9718.56
522.095	9593.56
522.195	9647.56
522.296	9692.56
522.397	9709.56
522.498	9600.56
522.599	9413.56
522.699	9626.56
522.8	9520.56
522.901	9701.56
523.002	9495.56
523.102	9846.56
523.203	9727.56
523.304	9904.56
523.405	9663.56
523.505	9684.56
523.606	9538.56
523.707	9685.56
523.807	9593.56
523.908	9662.56
524.009	9798.56
524.109	9578.56
524.21	9627.56
524.31	9798.56
524.411	9816.56
524.512	9783.56
524.612	9791.56
524.713	9865.56
524.813	9621.56
524.914	9982.56
525.014	14561.56
525.115	10101.56
525.216	9692.56
525.316	9670.56
525.417	9658.56
525.517	9630.56
525.618	9751.56
525.718	9712.56
525.819	9597.56
525.919	9701.56
526.019	9714.56
526.12	9689.56
526.22	9559.56
526.321	9562.56
526.421	9628.56
526.522	9678.56
526.622	9347.56
526.722	9629.56
526.823	9635.56
526.923	9658.56
527.023	9735.56
527.124	9461.56
527.224	9622.56
527.324	9599.56
527.425	9593.56
527.525	9403.56
527.625	9594.56
527.726	9537.56
527.826	9732.56
527.926	9473.56
528.026	9746.56
528.127	9597.56
528.227	9594.56
528.327	9677.56
528.427	9556.56
528.528	9596.56
528.628	9703.56
528.728	9544.56
528.828	9640.56
528.928	9667.56
529.029	9578.56
529.129	9589.56
529.229	9674.56
529.329	9612.56
529.429	9656.56
529.529	9606.56
529.629	9568.56
529.729	9484.56
529.829	9469.56
529.93	9447.56
530.03	9427.56
530.13	9409.56
530.23	9348.56
530.33	9352.56
530.43	9323.56
530.53	9326.56
530.63	9263.56
530.73	9146.56
530.83	9163.56
530.93	9192.56
531.03	9168.56
531.13	9264.56
531.23	9271.56
531.33	9246.56
531.429	9133.56
531.529	9164.56
531.629	9133.56
531.729	8991.56
531.829	8970.56
531.929	9094.56
532.029	9006.56
532.129	8989.56
532.229	9085.56
532.328	8865.56
532.428	8809.56
532.528	8924.56
532.628	8826.56
532.728	8800.56
532.827	8803.56
532.927	8951.56
533.027	8704.56
533.127	9076.56
533.227	8932.56
533.326	8847.56
533.426	8840.56
533.526	8853.56
533.625	8850.56
533.725	8996.56
533.825	8736.56
533.924	8537.56
534.024	8510.56
534.124	8560.56
534.223	8596.56
534.323	8774.56
534.423	8462.56
534.522	8484.56
534.622	8342.56
534.722	8314.56
534.821	8396.56
534.921	8350.56
535.02	8164.56
535.12	8328.56
535.219	8361.56
535.319	8283.56
535.419	8171.56
535.518	8125.56
535.618	8288.56
535.717	8195.56
535.817	7923.56
535.916	7891.56
536.016	8039.56
536.115	7796.56
536.215	7740.56
536.314	7643.56
536.413	7711.56
536.513	7709.56
536.612	7684.56
536.712	7582.56
536.811	7642.56
536.91	7411.56
537.01	7411.56
537.109	7661.56
537.209	7538.56
537.308	7446.56
537.407	7602.56
537.507	7498.56
537.606	7415.56
537.705	7488.56
537.805	7378.56
537.904	7279.56
538.003	7371.56
538.102	7493.56
538.202	7349.56
538.301	7429.56
538.4	7382.56
538.499	7279.56
538.599	7333.56
538.698	7573.56
538.797	7355.56
538.896	7364.56
538.995	7238.56
539.095	7104.56
539.194	7373.56
539.293	7152.56
539.392	7169.56
539.491	7084.56
539.59	7108.56
539.689	7173.56
539.789	7015.56
539.888	6940.56
539.987	6825.56
540.086	6920.56
540.185	7019.56
540.284	7071.56
540.383	6887.56
540.482	6805.56
540.581	6967.56
540.68	6798.56
540.779	6970.56
540.878	6950.56
540.977	7041.56
541.076	6952.56
541.175	6945.56
541.274	7142.56
541.373	7027.56
541.472	6895.56
541.571	6867.56
541.67	8217.56
541.769	7060.56
541.868	6842.56
541.966	6918.56
542.065	6775.56
542.164	6823.56
542.263	6744.56
542.362	6798.56
542.461	6764.56
542.56	6723.56
542.658	6749.56
542.757	6513.56
542.856	6640.56
542.955	6536.56
543.054	6463.56
543.152	6740.56
543.251	6470.56
543.35	6781.56
543.449	6583.56
543.547	6499.56
543.646	6653.56
543.745	6738.56
543.843	6742.56
543.942	6686.56
544.041	6593.56
544.14	6677.56
544.238	6634.56
544.337	6900.56
544.436	6768.56
544.534	6845.56
544.633	6651.56
544.731	6725.56
544.83	6772.56
544.929	6705.56
545.027	6682.56
545.126	6760.56
545.224	6822.56
545.323	6846.56
545.421	6695.56
545.52	6658.56
545.619	6693.56
545.717	6717.56
545.816	6733.56
545.914	6692.56
546.013	6904.56
546.111	6873.56
546.209	6623.56
546.308	6587.56
546.406	6696.56
546.505	6906.56
546.603	6674.56
546.702	6602.56
546.8	6555.56
546.899	6523.56
546.997	6773.56
547.095	6490.56
547.194	6642.56
547.292	6643.56
547.39	6734.56
547.489	6627.56
547.587	6924.56
547.685	6683.56
547.784	6992.56
547.882	6596.56
547.98	6652.56
548.079	6645.56
548.177	6617.56
548.275	6504.56
548.373	6760.56
548.472	6592.56
548.57	6692.56
548.668	6790.56
548.766	6631.56
548.864	6748.56
548.963	6565.56
549.061	6753.56
549.159	6614.56
549.257	6794.56
549.355	6652.56
549.454	6654.56
549.552	6782.56
549.65	6596.56
549.748	6546.56
549.846	6750.56
549.944	6672.56
550.042	6589.56
550.14	6607.56
550.238	6698.56
550.336	6413.56
550.434	6557.56
550.532	6541.56
550.631	6618.56
550.729	6622.56
550.827	6670.56
550.925	6473.56
551.023	6471.56
551.121	6421.56
551.218	6488.56
551.316	6307.56
551.414	6502.56
551.512	6417.56
551.61	6432.56
551.708	6548.56
551.806	6541.56
551.904	6465.56
552.002	6607.56
552.1	6671.56
552.198	6751.56
552.296	7040.56
552.393	7066.56
552.491	7135.56
552.589	7060.56
552.687	7084.56
552.785	7126.56
552.882	7318.56
552.98	7393.56
553.078	7253.56
553.176	7300.56
553.274	7140.56
553.371	7154.56
553.469	7127.56
553.567	7139.56
553.665	7099.56
553.762	7493.56
553.86	7096.56
553.958	6922.56
554.055	6860.56
554.153	6878.56
554.251	6660.56
554.348	6828.56
554.446	6542.56
554.544	6637.56
554.641	7113.56
554.739	6540.56
554.837	6504.56
554.934	6509.56
555.032	6430.56
555.129	6218.56
555.227	6696.56
555.324	9446.56
555.422	6570.56
555.519	6352.56
555.617	6208.56
555.715	6108.56
555.812	6594.56
555.91	6098.56
556.007	6166.56
556.105	6070.56
556.202	6233.56
556.299	6057.56
556.397	6182.56
556.494	6034.56
556.592	5987.56
556.689	6124.56
556.787	6109.56
556.884	5979.56
556.981	5957.56
557.079	5923.56
557.176	6133.56
557.273	6132.56
557.371	6105.56
557.468	6000.56
557.566	6119.56
557.663	5979.56
557.76	6075.56
557.857	6007.56
557.955	5951.56
558.052	6137.56
558.149	6255.56
558.247	6208.56
558.344	5878.56
558.441	5997.56
558.538	5924.56
558.636	5976.56
558.733	6077.56
558.83	6014.56
558.927	6049.56
559.024	5995.56
559.122	6068.56
559.219	6019.56
559.316	6016.56
559.413	6194.56
559.51	5880.56
559.607	6024.56
559.704	6040.56
559.801	6064.56
559.899	5981.56
559.996	6226.56
560.093	6036.56
560.19	5971.56
560.287	6140.56
560.384	6358.56
560.481	6148.56
560.578	6030.56
560.675	6040.56
560.772	6262.56
560.869	6153.56
560.966	6224.56
561.063	6004.56
561.16	6166.56
561.257	6189.56
561.354	6202.56
561.451	6133.56
561.548	6246.56
561.645	6396.56
561.742	6150.56
561.838	6212.56
561.935	6256.56
562.032	6163.56
562.129	6152.56
562.226	6343.56
562.323	6189.56
562.42	6243.56
562.516	6284.56
562.613	6208.56
562.71	6273.56
562.807	7165.56
562.904	6295.56
563	6253.56
563.097	6279.56
563.194	6334.56
563.291	6269.56
563.387	6343.56
563.484	6446.56
563.581	6324.56
563.678	6346.56
563.774	6910.56
563.871	6527.56
563.968	6492.56
564.064	6637.56
564.161	6641.56
564.258	6493.56
564.354	6801.56
564.451	6784.56
564.548	6864.56
564.644	6904.56
564.741	6983.56
564.837	7007.56
564.934	7110.56
565.031	7168.56
565.127	7276.56
565.224	7311.56
565.32	7514.56
565.417	7428.56
565.513	7674.56
565.61	7910.56
565.706	8057.56
565.803	8022.56
565.899	8085.56
565.996	8403.56
566.092	8476.56
566.189	8713.56
566.285	9001.56
566.382	9168.56
566.478	9537.56
566.574	9670.56
566.671	9543.56
566.767	9645.56
566.864	9674.56
566.96	9817.56
567.056	9819.56
567.153	10144.56
567.249	10252.56
567.345	10528.56
567.442	10470.56
567.538	10719.56
567.634	10887.56
567.731	10651.56
567.827	10635.56
567.923	10608.56
568.019	10127.56
568.116	9830.56
568.212	9576.56
568.308	9370.56
568.404	9053.56
568.501	8895.56
568.597	8590.56
568.693	8251.56
568.789	8978.56
568.885	7929.56
568.982	7743.56
569.078	7530.56
569.174	7480.56
569.27	7119.56
569.366	7219.56
569.462	7032.56
569.558	6968.56
569.655	6899.56
569.751	6774.56
569.847	6634.56
569.943	6635.56
570.039	6698.56
570.135	6992.56
570.231	6551.56
570.327	6679.56
570.423	6571.56
570.519	6609.56
570.615	6542.56
570.711	6620.56
570.807	6470.56
570.903	6499.56
570.999	6591.56
571.095	6462.56
571.191	6321.56
571.287	6358.56
571.383	6304.56
571.479	6210.56
571.574	6289.56
571.67	6016.56
571.766	6187.56
571.862	5998.56
571.958	5811.56
572.054	5694.56
572.15	5658.56
572.246	5631.56
572.341	5742.56
572.437	5592.56
572.533	5604.56
572.629	5523.56
572.725	5468.56
572.82	5442.56
572.916	5546.56
573.012	5307.56
573.108	5364.56
573.203	5284.56
573.299	5242.56
573.395	5150.56
573.49	5192.56
573.586	5204.56
573.682	5232.56
573.778	5305.56
573.873	5147.56
573.969	5096.56
574.065	5112.56
574.16	5092.56
574.256	5024.56
574.351	5119.56
574.447	5051.56
574.543	4992.56
574.638	5194.56
574.734	5185.56
574.829	5187.56
574.925	4937.56
575.02	4926.56
575.116	4971.56
575.212	4931.56
575.307	5038.56
575.403	4862.56
575.498	4815.56
575.594	4822.56
575.689	4844.56
575.784	4848.56
575.88	4907.56
575.975	4880.56
576.071	4663.56
576.166	4639.56
576.262	4727.56
576.357	4651.56
576.452	4792.56
576.548	4672.56
576.643	4585.56
576.739	4618.56
576.834	4613.56
576.929	4633.56
577.025	5191.56
577.12	4405.56
577.215	4364.56
577.311	4528.56
577.406	4500.56
577.501	4710.56
577.597	4352.56
577.692	4569.56
577.787	4417.56
577.882	4280.56
577.978	4275.56
578.073	4229.56
578.168	4211.56
578.263	4242.56
578.358	4151.56
578.454	4184.56
578.549	4067.56
578.644	4142.56
578.739	4163.56
578.834	4083.56
578.929	4007.56
579.025	3999.56
579.12	4085.56
579.215	4250.56
579.31	4207.56
579.405	3981.56
579.5	4014.56
579.595	3976.56
579.69	3950.56
579.785	3851.56
579.88	3852.56
579.975	3971.56
580.07	3767.56
580.165	3888.56
580.26	3972.56
580.355	3822.56
580.45	3784.56
580.545	3765.56
580.64	3788.56
580.735	3851.56
580.83	3771.56
580.925	3804.56
581.02	3754.56
581.115	3761.56
581.21	3724.56
581.305	3798.56
581.4	3713.56
581.495	3669.56
581.589	3664.56
581.684	3623.56
581.779	3826.56
581.874	3621.56
581.969	3701.56
582.064	3552.56
582.158	3630.56
582.253	3533.56
582.348	3622.56
582.443	3574.56
582.537	3517.56
582.632	3748.56
582.727	3552.56
582.822	3423.56
582.916	3396.56
583.011	3408.56
583.106	3433.56
583.201	3376.56
583.295	3479.56
583.39	3393.56
583.485	3369.56
583.579	5622.56
583.674	3601.56
583.769	3636.56
583.863	3367.56
583.958	3404.56
584.052	3215.56
584.147	3249.56
584.242	3279.56
584.336	3286.56
584.431	3457.56
584.525	3216.56
584.62	3502.56
584.714	3361.56
584.809	3298.56
584.903	3318.56
584.998	3275.56
585.092	3207.56
585.187	3309.56
585.281	3080.56
585.376	3262.56
585.47	3326.56
585.565	3110.56
585.659	3098.56
585.754	3128.56
585.848	3187.56
585.942	3110.56
586.037	3034.56
586.131	5521.56
586.226	3211.56
586.32	3183.56
586.414	3044.56
586.509	3246.56
586.603	3057.56
586.697	3059.56
586.792	3027.56
586.886	2938.56
586.98	3113.56
587.075	3012.56
587.169	2976.56
587.263	3215.56
587.357	3088.56
587.452	2859.56
587.546	3122.56
587.64	2923.56
587.734	2899.56
587.829	3063.56
587.923	2941.56
588.017	2972.56
588.111	2904.56
588.205	3007.56
588.3	2958.56
588.394	2901.56
588.488	2932.56
588.582	3071.56
588.676	3199.56
588.77	3877.56
588.864	6173.56
588.958	6550.56
589.052	5596.56
589.147	4287.56
589.241	3458.56
589.335	3381.56
589.429	4616.56
589.523	5425.56
589.617	5126.56
589.711	4042.56
589.805	3369.56
589.899	3142.56
589.993	3040.56
590.087	2972.56
590.181	2812.56
590.275	2932.56
590.369	2934.56
590.462	2892.56
590.556	2844.56
590.65	2796.56
590.744	2801.56
590.838	2765.56
590.932	2816.56
591.026	2995.56
591.12	2982.56
591.214	2907.56
591.307	2957.56
591.401	2898.56
591.495	3004.56
591.589	2920.56
591.683	2925.56
591.777	2963.56
591.87	3335.56
591.964	2989.56
592.058	2989.56
592.152	3080.56
592.245	3028.56
592.339	3152.56
592.433	3284.56
592.527	3239.56
592.62	3088.56
592.714	3118.56
592.808	3306.56
592.901	3292.56
592.995	3172.56
593.089	3540.56
593.182	3315.56
593.276	3255.56
593.37	3144.56
593.463	3186.56
593.557	3205.56
593.65	3163.56
593.744	3309.56
593.837	3358.56
593.931	3259.56
594.025	6973.56
594.118	3520.56
594.212	3212.56
594.305	3158.56
594.399	3169.56
594.492	3459.56
594.586	3066.56
594.679	3096.56
594.773	3006.56
594.866	3011.56
594.96	2935.56
595.053	2830.56
595.146	2869.56
595.24	2800.56
595.333	2761.56
595.427	2676.56
595.52	2671.56
595.614	2814.56
595.707	2687.56
595.8	2639.56
595.894	2611.56
595.987	2539.56
596.08	2512.56
596.174	2919.56
596.267	2653.56
596.36	2628.56
596.454	2698.56
596.547	2492.56
596.64	2424.56
596.733	2392.56
596.827	2502.56
596.92	2368.56
597.013	2305.56
597.106	2335.56
597.2	2327.56
597.293	2312.56
597.386	2590.56
597.479	2421.56
597.572	2354.56
597.666	2272.56
597.759	2232.56
597.852	2308.56
597.945	2254.56
598.038	2197.56
598.131	2205.56
598.224	2205.56
598.317	2339.56
598.411	2252.56
598.504	2168.56
598.597	2357.56
598.69	2173.56
598.783	2184.56
598.876	2319.56
598.969	2228.56
599.062	2095.56
599.155	2286.56
599.248	2164.56
599.341	2132.56
599.434	2186.56
599.527	2239.56
599.62	2161.56
599.713	2152.56
599.806	2250.56
599.899	2243.56
599.991	2092.56
600.084	2386.56
600.177	2107.56
600.27	2118.56
600.363	2365.56
600.456	2053.56
600.549	2182.56
600.642	2081.56
600.734	2137.56
600.827	2091.56
600.92	2223.56
601.013	2143.56
601.106	2196.56
601.199	2092.56
601.291	2116.56
601.384	2032.56
601.477	2288.56
601.57	2231.56
601.662	2119.56
601.755	2158.56
601.848	2130.56
601.94	2003.56
602.033	2187.56
602.126	2120.56
602.219	2144.56
602.311	2236.56
602.404	2033.56
602.497	2056.56
602.589	2056.56
602.682	2091.56
602.774	2113.56
602.867	2021.56
602.96	2038.56
603.052	2067.56
603.145	2021.56
603.237	2062.56
603.33	2025.56
603.422	2157.56
603.515	1899.56
603.608	2028.56
603.7	2086.56
603.793	2020.56
603.885	2053.56
603.978	2022.56
604.07	2011.56
604.163	1955.56
604.255	2007.56
604.347	1953.56
604.44	1949.56
604.532	1957.56
604.625	1949.56
604.717	1921.56
604.81	2048.56
604.902	1962.56
604.994	1894.56
605.087	1944.56
605.179	2011.56
605.271	1987.56
605.364	1961.56
605.456	2088.56
605.548	1995.56
605.641	1929.56
605.733	1973.56
605.825	2049.56
605.918	1900.56
606.01	2132.56
606.102	2465.56
606.194	1942.56
606.287	2103.56
606.379	1974.56
606.471	1922.56
606.563	1995.56
606.655	2044.56
606.748	2012.56
606.84	1959.56
606.932	2020.56
607.024	1873.56
607.116	1893.56
607.208	1836.56
607.301	1968.56
607.393	1850.56
607.485	1927.56
607.577	2037.56
607.669	1968.56
607.761	1957.56
607.853	2253.56
607.945	1868.56
608.037	1782.56
608.129	1884.56
608.221	1891.56
608.313	1864.56
608.405	1959.56
608.497	1962.56
608.589	1871.56
608.681	1932.56
608.773	1976.56
608.865	1848.56
608.957	1918.56
609.049	1888.56
609.141	1962.56
609.233	1828.56
609.325	1868.56
609.417	1885.56
609.509	1959.56
609.601	2008.56
609.693	2000.56
609.784	1755.56
609.876	1887.56
609.968	1973.56
610.06	4077.56
610.152	2042.56
610.244	2666.56
610.335	1944.56
610.427	1831.56
610.519	1807.56
610.611	1887.56
610.702	1752.56
610.794	1829.56
610.886	1972.56
610.978	1760.56
611.069	2238.56
611.161	1805.56
611.253	1763.56
611.344	1662.56
611.436	1636.56
611.528	1651.56
611.62	1554.56
611.711	1613.56
611.803	1613.56
611.894	1481.56
611.986	1449.56
612.078	1571.56
612.169	1512.56
612.261	1495.56
612.352	1520.56
612.444	1373.56
612.536	1534.56
612.627	1422.56
612.719	1343.56
612.81	1317.56
612.902	1324.56
612.993	1405.56
613.085	1279.56
613.176	1225.56
613.268	1325.56
613.359	1225.56
613.451	1277.56
613.542	1295.56
613.634	1175.56
613.725	1204.56
613.816	1352.56
613.908	1088.56
613.999	1037.56
614.091	1044.56
614.182	1004.56
614.273	1032.56
614.365	985.56
614.456	974.56
614.547	932.56
614.639	928.56
614.73	969.56
614.821	984.56
614.913	816.56
615.004	854.56
615.095	806.56
615.187	759.56
