Data from 14g_HRC06701__52__235.txt Node

Date: Thu Apr 18 01:58:46 CDT 2024
User: Estudiantes 2
Spectrometer: HR+C0670
Trigger mode: 4
Integration Time (sec): 1.000000E0
Scans to average: 1
Electric dark correction enabled: true
Nonlinearity correction enabled: false
Boxcar width: 0
XAxis mode: Wavelengths
Number of Pixels in Spectrum: 2048
>>>>>Begin Spectral Data<<<<<
407.81	-106
407.921	-106
408.032	-106
408.143	-74
408.254	-168
408.365	19
408.476	259
408.587	-32
408.699	-10
408.81	8
408.921	-28
409.032	-59
409.143	22
409.254	53
409.365	71
409.476	-42
409.587	33
409.698	54
409.809	84
409.92	-2
410.031	-47
410.142	57
410.253	38
410.364	11
410.475	262
410.585	1546
410.696	1700
410.807	1570
410.918	1655
411.029	1766
411.14	1668
411.251	1667
411.362	1741
411.472	1708
411.583	1754
411.694	1830
411.805	1737
411.916	1745
412.026	1766
412.137	1735
412.248	1741
412.359	1763
412.47	1661
412.58	1645
412.691	1699
412.802	1743
412.912	1688
413.023	1685
413.134	1685
413.245	1785
413.355	1654
413.466	1633
413.577	1707
413.687	1748
413.798	1604
413.909	1754
414.019	1701
414.13	1744
414.24	1694
414.351	1723
414.462	1901
414.572	1791
414.683	1752
414.793	1720
414.904	2034
415.014	1718
415.125	1704
415.235	1749
415.346	1908
415.456	1825
415.567	1703
415.677	1808
415.788	1794
415.898	1642
416.009	1737
416.119	1732
416.23	1666
416.34	1660
416.45	1742
416.561	2554
416.671	1842
416.782	1703
416.892	1712
417.002	1759
417.113	1767
417.223	1683
417.333	1635
417.444	1691
417.554	1738
417.664	1777
417.775	1681
417.885	1805
417.995	1776
418.106	1917
418.216	1833
418.326	1847
418.436	1839
418.547	1879
418.657	1789
418.767	1985
418.877	1901
418.987	1926
419.098	1844
419.208	1927
419.318	2013
419.428	1977
419.538	1885
419.648	2002
419.759	1926
419.869	2008
419.979	1969
420.089	1929
420.199	1839
420.309	1968
420.419	1927
420.529	1927
420.639	2493
420.749	2035
420.859	2057
420.969	2017
421.079	2289
421.189	2017
421.299	2013
421.409	1995
421.519	2114
421.629	2114
421.739	2088
421.849	2069
421.959	1955
422.069	2069
422.179	2067
422.289	2031
422.399	2209
422.509	2315
422.619	5572
422.729	2430
422.838	2147
422.948	2257
423.058	2196
423.168	2232
423.278	2193
423.388	2266
423.498	2326
423.607	2307
423.717	2590
423.827	2593
423.937	2333
424.046	2474
424.156	2441
424.266	2400
424.376	2591
424.485	2488
424.595	2470
424.705	2411
424.815	2482
424.924	2882
425.034	2562
425.144	2374
425.253	2478
425.363	2639
425.473	2556
425.582	2400
425.692	2515
425.801	2519
425.911	2737
426.021	2661
426.13	2797
426.24	2829
426.349	2697
426.459	2649
426.568	2610
426.678	2787
426.787	2643
426.897	2617
427.006	2674
427.116	2857
427.225	2754
427.335	2855
427.444	2776
427.554	2832
427.663	2794
427.773	2828
427.882	2929
427.992	2848
428.101	2755
428.21	2851
428.32	2885
428.429	2840
428.539	3245
428.648	2917
428.757	2893
428.867	2950
428.976	3160
429.085	2962
429.195	3074
429.304	3070
429.413	3088
429.523	3139
429.632	3120
429.741	3106
429.85	3032
429.96	3144
430.069	3095
430.178	3073
430.287	3428
430.397	3147
430.506	3153
430.615	3206
430.724	3196
430.833	3229
430.943	3232
431.052	3295
431.161	3223
431.27	3346
431.379	3281
431.488	3465
431.597	3339
431.706	3486
431.816	3359
431.925	3398
432.034	3387
432.143	3527
432.252	3395
432.361	3443
432.47	3461
432.579	3379
432.688	3351
432.797	3511
432.906	3276
433.015	3533
433.124	3848
433.233	3469
433.342	3486
433.451	3459
433.56	3428
433.669	3443
433.778	3393
433.886	3601
433.995	3538
434.104	3750
434.213	3575
434.322	3542
434.431	3668
434.54	3754
434.649	3879
434.757	3732
434.866	3657
434.975	3692
435.084	3639
435.193	3629
435.301	3835
435.41	3862
435.519	3954
435.628	3458
435.737	3343
435.845	3303
435.954	3322
436.063	3245
436.171	3262
436.28	3341
436.389	3426
436.498	3280
436.606	3275
436.715	3469
436.823	3186
436.932	3151
437.041	3189
437.149	3210
437.258	3083
437.367	3020
437.475	3023
437.584	3296
437.692	3042
437.801	4591
437.91	3137
438.018	3022
438.127	2942
438.235	3045
438.344	3034
438.452	3088
438.561	2897
438.669	3046
438.778	2976
438.886	2941
438.995	2870
439.103	2963
439.212	2981
439.32	2967
439.428	2970
439.537	2949
439.645	3076
439.754	3099
439.862	2998
439.97	3039
440.079	3014
440.187	3008
440.295	3162
440.404	3005
440.512	3000
440.62	3146
440.729	3087
440.837	3243
440.945	3829
441.054	3183
441.162	3149
441.27	3433
441.378	3266
441.487	3243
441.595	3615
441.703	3395
441.811	3258
441.92	3248
442.028	3175
442.136	3204
442.244	3257
442.352	3234
442.461	3081
442.569	3094
442.677	3186
442.785	3205
442.893	3113
443.001	3187
443.109	3079
443.217	3067
443.325	3148
443.434	3728
443.542	3490
443.65	3165
443.758	3375
443.866	3246
443.974	3665
444.082	3461
444.19	3416
444.298	3486
444.406	3621
444.514	3584
444.622	3642
444.73	3628
444.838	3616
444.946	3667
445.054	3467
445.161	3560
445.269	3402
445.377	3436
445.485	3387
445.593	3207
445.701	3536
445.809	3433
445.917	3344
446.025	3244
446.132	3475
446.24	3287
446.348	3241
446.456	3181
446.564	3261
446.671	3282
446.779	3204
446.887	3312
446.995	3159
447.102	3302
447.21	3326
447.318	3180
447.426	3152
447.533	3479
447.641	4573
447.749	3355
447.856	3244
447.964	3270
448.072	3333
448.179	3260
448.287	3357
448.395	3268
448.502	3225
448.61	3342
448.718	3281
448.825	3360
448.933	3347
449.04	3267
449.148	3406
449.256	3409
449.363	3442
449.471	3387
449.578	3476
449.686	3415
449.793	3541
449.901	3373
450.008	3485
450.116	3558
450.223	3547
450.331	3720
450.438	3626
450.546	3701
450.653	3724
450.76	3820
450.868	3718
450.975	4006
451.083	3824
451.19	3835
451.297	3756
451.405	3869
451.512	3830
451.619	3953
451.727	4044
451.834	3923
451.941	3872
452.049	3875
452.156	3926
452.263	3904
452.371	3952
452.478	4013
452.585	4087
452.692	3942
452.8	4045
452.907	4156
453.014	4063
453.121	4120
453.229	4129
453.336	4114
453.443	4226
453.55	4141
453.657	4014
453.765	4261
453.872	4232
453.979	4223
454.086	4253
454.193	4364
454.3	4194
454.407	4286
454.514	4448
454.621	4200
454.729	4191
454.836	4359
454.943	4403
455.05	4380
455.157	4538
455.264	4401
455.371	4381
455.478	4411
455.585	4760
455.692	4551
455.799	4575
455.906	4517
456.013	4516
456.12	4475
456.227	4510
456.334	4629
456.44	4705
456.547	4587
456.654	4578
456.761	4687
456.868	4759
456.975	4826
457.082	4614
457.189	4676
457.296	4759
457.402	4685
457.509	4661
457.616	4794
457.723	5130
457.83	4935
457.936	4810
458.043	5324
458.15	4944
458.257	5114
458.363	5223
458.47	5172
458.577	5261
458.684	5201
458.79	5338
458.897	5382
459.004	5626
459.11	5505
459.217	5551
459.324	5689
459.43	5885
459.537	6020
459.644	5795
459.75	5882
459.857	6196
459.964	5891
460.07	5925
460.177	6081
460.283	6077
460.39	6297
460.496	6125
460.603	6053
460.71	6042
460.816	6052
460.923	6004
461.029	6058
461.136	6211
461.242	5977
461.349	6113
461.455	6156
461.562	6366
461.668	6254
461.774	6167
461.881	6328
461.987	6206
462.094	6458
462.2	6589
462.307	6547
462.413	6341
462.519	6559
462.626	6923
462.732	6913
462.838	7039
462.945	7263
463.051	7352
463.157	7304
463.264	7021
463.37	6949
463.476	6723
463.583	6676
463.689	6536
463.795	6546
463.901	6709
464.008	6736
464.114	6577
464.22	6732
464.326	6670
464.433	6288
464.539	6463
464.645	6181
464.751	6373
464.857	5993
464.963	5973
465.07	5852
465.176	5656
465.282	5630
465.388	5542
465.494	5262
465.6	5210
465.706	5114
465.812	5053
465.918	5091
466.024	4996
466.131	4925
466.237	4804
466.343	4754
466.449	4600
466.555	4630
466.661	4630
466.767	4562
466.873	4501
466.979	4803
467.085	4474
467.191	4516
467.296	4491
467.402	4398
467.508	4458
467.614	4403
467.72	4297
467.826	4253
467.932	4256
468.038	4280
468.144	4222
468.25	4144
468.355	4176
468.461	4189
468.567	4129
468.673	4108
468.779	4072
468.885	4054
468.99	4027
469.096	4085
469.202	4145
469.308	4116
469.413	4184
469.519	4116
469.625	4057
469.731	4247
469.836	4197
469.942	4351
470.048	4195
470.153	4138
470.259	4169
470.365	4268
470.47	4279
470.576	4015
470.682	4073
470.787	4175
470.893	3953
470.999	4137
471.104	4139
471.21	3891
471.315	3848
471.421	3871
471.527	4032
471.632	3859
471.738	3770
471.843	3729
471.949	3845
472.054	3720
472.16	3734
472.265	3669
472.371	3522
472.476	3687
472.582	3675
472.687	3584
472.793	3554
472.898	3594
473.003	3564
473.109	3480
473.214	3526
473.32	3487
473.425	3593
473.53	3551
473.636	3502
473.741	3518
473.847	3512
473.952	3482
474.057	3593
474.163	3624
474.268	3462
474.373	3538
474.478	3503
474.584	3478
474.689	3608
474.794	3479
474.9	3830
475.005	3433
475.11	3696
475.215	3537
475.321	3514
475.426	3720
475.531	3705
475.636	3593
475.741	3441
475.846	3666
475.952	3870
476.057	3639
476.162	3704
476.267	3818
476.372	3901
476.477	3601
476.582	3773
476.687	3576
476.793	3662
476.898	3714
477.003	3704
477.108	3655
477.213	3671
477.318	3685
477.423	3806
477.528	3886
477.633	3959
477.738	3907
477.843	3759
477.948	3844
478.053	3939
478.158	3943
478.263	4018
478.368	3967
478.473	4093
478.578	4061
478.682	4053
478.787	4151
478.892	4153
478.997	4239
479.102	4112
479.207	4134
479.312	4382
479.417	4135
479.521	4210
479.626	4299
479.731	4297
479.836	4279
479.941	4418
480.045	4498
480.15	4324
480.255	4488
480.36	4510
480.465	4535
480.569	4761
480.674	4579
480.779	4324
480.883	4405
480.988	4441
481.093	4392
481.197	4415
481.302	4382
481.407	4460
481.511	6286
481.616	4446
481.721	4358
481.825	4573
481.93	4360
482.035	4441
482.139	4405
482.244	4425
482.348	4465
482.453	4552
482.557	4545
482.662	4530
482.767	4529
482.871	4435
482.976	4592
483.08	4687
483.185	4844
483.289	4691
483.394	4689
483.498	4729
483.603	4762
483.707	4758
483.811	4750
483.916	4920
484.02	4893
484.125	5043
484.229	4917
484.333	5097
484.438	4930
484.542	4905
484.647	5081
484.751	5189
484.855	5120
484.96	5093
485.064	5198
485.168	5403
485.273	5235
485.377	5341
485.481	5539
485.585	5317
485.69	5321
485.794	5417
485.898	5474
486.002	5494
486.107	5481
486.211	5381
486.315	5447
486.419	5496
486.524	5459
486.628	5527
486.732	5464
486.836	5490
486.94	5524
487.044	5527
487.148	5626
487.253	5461
487.357	5560
487.461	5813
487.565	5495
487.669	5496
487.773	5579
487.877	5632
487.981	5553
488.085	5611
488.189	5704
488.293	5685
488.397	6052
488.501	5718
488.605	5663
488.709	5533
488.813	5552
488.917	5484
489.021	5709
489.125	5841
489.229	5567
489.333	5863
489.437	5693
489.541	5818
489.645	5582
489.749	5651
489.853	5728
489.956	5677
490.06	5684
490.164	5772
490.268	5680
490.372	5831
490.476	5717
490.579	5671
490.683	6278
490.787	5750
490.891	5677
490.995	5761
491.098	5721
491.202	5854
491.306	5863
491.41	5716
491.513	5712
491.617	5734
491.721	5865
491.824	5954
491.928	5703
492.032	5982
492.136	5648
492.239	5709
492.343	5655
492.446	6189
492.55	5723
492.654	5678
492.757	5697
492.861	5845
492.965	5635
493.068	5732
493.172	5821
493.275	5690
493.379	5613
493.482	5841
493.586	5885
493.689	5970
493.793	5745
493.896	5927
494	5928
494.103	5883
494.207	6052
494.31	6155
494.414	5817
494.517	5814
494.621	5688
494.724	5698
494.828	5607
494.931	5702
495.034	5658
495.138	5854
495.241	5682
495.345	6397
495.448	5825
495.551	5668
495.655	5607
495.758	5640
495.861	5659
495.965	5616
496.068	5628
496.171	5850
496.274	5673
496.378	5673
496.481	5746
496.584	5713
496.687	5679
496.791	5834
496.894	5864
496.997	5770
497.1	5806
497.204	5865
497.307	5873
497.41	5996
497.513	6234
497.616	6058
497.719	6051
497.823	6065
497.926	6245
498.029	6194
498.132	6336
498.235	6509
498.338	6481
498.441	6646
498.544	6735
498.647	6856
498.75	7168
498.853	7303
498.956	7369
499.059	7771
499.163	7812
499.266	8097
499.369	8205
499.471	8554
499.574	8836
499.677	9050
499.78	9319
499.883	9781
499.986	10177
500.089	10411
500.192	10658
500.295	10702
500.398	10579
500.501	10475
500.604	10366
500.707	9986
500.809	9719
500.912	9636
501.015	9045
501.118	8670
501.221	8427
501.324	7913
501.426	7789
501.529	7407
501.632	7263
501.735	6978
501.837	6846
501.94	6688
502.043	6457
502.146	6427
502.248	6377
502.351	6191
502.454	6084
502.557	5985
502.659	5846
502.762	5632
502.865	5598
502.967	5538
503.07	5357
503.173	5420
503.275	5333
503.378	5228
503.48	5138
503.583	5263
503.686	5206
503.788	5423
503.891	5185
503.993	5304
504.096	5103
504.198	5159
504.301	5151
504.403	5123
504.506	5116
504.608	5067
504.711	4914
504.813	4820
504.916	4836
505.018	4638
505.121	4523
505.223	4609
505.326	4425
505.428	4492
505.531	4422
505.633	4402
505.735	4223
505.838	4325
505.94	4273
506.042	4167
506.145	4145
506.247	4253
506.35	4108
506.452	4175
506.554	4304
506.656	4194
506.759	4110
506.861	4180
506.963	3984
507.066	4130
507.168	4185
507.27	4007
507.372	3976
507.475	4037
507.577	4138
507.679	3993
507.781	3918
507.883	4044
507.986	3878
508.088	3911
508.19	3968
508.292	3921
508.394	3839
508.496	3841
508.598	3840
508.701	3802
508.803	3843
508.905	3770
509.007	3857
509.109	3870
509.211	3902
509.313	3837
509.415	3778
509.517	3903
509.619	3773
509.721	3821
509.823	3758
509.925	3914
510.027	3730
510.129	3737
510.231	3889
510.333	3686
510.435	3703
510.537	3865
510.639	3793
510.741	3703
510.843	3844
510.945	3746
511.047	3709
511.148	3797
511.25	3736
511.352	3743
511.454	3642
511.556	3777
511.658	3749
511.76	3851
511.861	4018
511.963	3729
512.065	3629
512.167	3669
512.268	3934
512.37	3872
512.472	3766
512.574	3871
512.676	3851
512.777	3737
512.879	3790
512.981	3747
513.082	3790
513.184	3752
513.286	4249
513.387	3962
513.489	4006
513.591	3904
513.692	3934
513.794	3899
513.896	3786
513.997	3863
514.099	3786
514.2	4011
514.302	3885
514.404	3948
514.505	3962
514.607	4034
514.708	3952
514.81	4034
514.911	4023
515.013	4028
515.114	4052
515.216	4074
515.317	4142
515.419	4065
515.52	4182
515.622	4173
515.723	4243
515.825	4420
515.926	4333
516.027	4332
516.129	4395
516.23	4404
516.332	4436
516.433	4543
516.534	4726
516.636	4585
516.737	4533
516.838	5696
516.94	4861
517.041	4893
517.142	5174
517.244	5190
517.345	5272
517.446	5238
517.547	5301
517.649	5219
517.75	5169
517.851	5248
517.952	5451
518.054	5143
518.155	5245
518.256	5006
518.357	5114
518.458	4906
518.56	4832
518.661	4901
518.762	4894
518.863	4879
518.964	4816
519.065	4714
519.166	4684
519.268	4592
519.369	4841
519.47	4707
519.571	4570
519.672	4473
519.773	4563
519.874	4478
519.975	4474
520.076	4527
520.177	4610
520.278	4466
520.379	4548
520.48	4434
520.581	4265
520.682	4277
520.783	4390
520.884	4441
520.985	4484
521.086	4489
521.187	4493
521.288	4396
521.389	4530
521.489	4373
521.59	4320
521.691	4447
521.792	4419
521.893	4553
521.994	4547
522.095	4482
522.195	4491
522.296	4455
522.397	4515
522.498	4405
522.599	4356
522.699	4514
522.8	4394
522.901	4569
523.002	4516
523.102	4693
523.203	4378
523.304	4617
523.405	4427
523.505	4483
523.606	4556
523.707	4579
523.807	4547
523.908	4515
524.009	4724
524.109	4530
524.21	4528
524.31	4559
524.411	4576
524.512	4666
524.612	4580
524.713	4786
524.813	4549
524.914	4805
525.014	8999
525.115	4797
525.216	4490
525.316	4563
525.417	4581
525.517	4461
525.618	4477
525.718	4402
525.819	4483
525.919	4582
526.019	4457
526.12	4468
526.22	4423
526.321	4522
526.421	4324
526.522	4420
526.622	4361
526.722	4442
526.823	4453
526.923	4573
527.023	4455
527.124	4376
527.224	4532
527.324	4390
527.425	4443
527.525	4408
527.625	4510
527.726	4371
527.826	4601
527.926	4555
528.026	4475
528.127	4411
528.227	4518
528.327	4598
528.427	4453
528.528	4593
528.628	4574
528.728	4575
528.828	4551
528.928	4618
529.029	4499
529.129	4565
529.229	4547
529.329	4487
529.429	4568
529.529	4528
529.629	4634
529.729	4456
529.829	4650
529.93	4457
530.03	4449
530.13	4326
530.23	4422
530.33	4401
530.43	4347
530.53	4410
530.63	4298
530.73	4319
530.83	4184
530.93	4324
531.03	4228
531.13	4377
531.23	4280
531.33	4201
531.429	4313
531.529	4325
531.629	4275
531.729	4106
531.829	4262
531.929	4199
532.029	4269
532.129	4290
532.229	4224
532.328	4261
532.428	4121
532.528	4155
532.628	4103
532.728	4151
532.827	4155
532.927	4318
533.027	4227
533.127	4322
533.227	4257
533.326	4186
533.426	4193
533.526	4176
533.625	4270
533.725	4353
533.825	4178
533.924	3998
534.024	3854
534.124	3984
534.223	3970
534.323	4377
534.423	4090
534.522	3991
534.622	3885
534.722	3980
534.821	3967
534.921	3906
535.02	3877
535.12	3982
535.219	3969
535.319	4001
535.419	3986
535.518	3784
535.618	3875
535.717	3987
535.817	3789
535.916	3716
536.016	3759
536.115	3707
536.215	3686
536.314	3588
536.413	3594
536.513	3613
536.612	3510
536.712	3605
536.811	3527
536.91	3526
537.01	3576
537.109	3634
537.209	3641
537.308	3554
537.407	3514
537.507	3536
537.606	3478
537.705	3555
537.805	3473
537.904	3440
538.003	3592
538.102	3589
538.202	3487
538.301	3624
538.4	3538
538.499	3501
538.599	3559
538.698	3775
538.797	3533
538.896	3702
538.995	3633
539.095	3464
539.194	3699
539.293	3424
539.392	3371
539.491	3397
539.59	3492
539.689	3575
539.789	3387
539.888	3251
539.987	3172
540.086	3287
540.185	3341
540.284	3367
540.383	3369
540.482	3319
540.581	3459
540.68	3310
540.779	3482
540.878	3398
540.977	3418
541.076	3374
541.175	3426
541.274	3670
541.373	3392
541.472	3408
541.571	3253
541.67	4634
541.769	3473
541.868	3398
541.966	3399
542.065	3313
542.164	3400
542.263	3282
542.362	3283
542.461	3409
542.56	3292
542.658	3294
542.757	3206
542.856	3265
542.955	3209
543.054	3140
543.152	3365
543.251	3208
543.35	3317
543.449	3290
543.547	3207
543.646	3177
543.745	3326
543.843	3297
543.942	3264
544.041	3305
544.14	3296
544.238	3225
544.337	3425
544.436	3384
544.534	3480
544.633	3392
544.731	3378
544.83	3312
544.929	3339
545.027	3415
545.126	3282
545.224	3393
545.323	3318
545.421	3342
545.52	3267
545.619	3302
545.717	3297
545.816	3414
545.914	3382
546.013	3582
546.111	3455
546.209	3240
546.308	3290
546.406	3230
546.505	3409
546.603	3396
546.702	3268
546.8	3262
546.899	3303
546.997	3365
547.095	3269
547.194	3315
547.292	3310
547.39	3362
547.489	3301
547.587	3632
547.685	3215
547.784	3496
547.882	3370
547.98	3226
548.079	3380
548.177	3344
548.275	3237
548.373	3450
548.472	3249
548.57	3335
548.668	3380
548.766	3235
548.864	3424
548.963	3301
549.061	3455
549.159	3230
549.257	3382
549.355	3262
549.454	3206
549.552	3370
549.65	3326
549.748	3299
549.846	3354
549.944	3237
550.042	3253
550.14	3265
550.238	3295
550.336	3206
550.434	3160
550.532	3203
550.631	3240
550.729	3211
550.827	3304
550.925	3154
551.023	3221
551.121	3159
551.218	3161
551.316	3128
551.414	3197
551.512	3101
551.61	3124
551.708	3302
551.806	3165
551.904	3206
552.002	3173
552.1	3246
552.198	3235
552.296	3453
552.393	3609
552.491	3520
552.589	3504
552.687	3599
552.785	3444
552.882	3539
552.98	3779
553.078	3573
553.176	3544
553.274	3453
553.371	3507
553.469	3452
553.567	3481
553.665	3501
553.762	3878
553.86	3580
553.958	3433
554.055	3414
554.153	3457
554.251	3314
554.348	3330
554.446	3304
554.544	3329
554.641	3614
554.739	3273
554.837	3221
554.934	3267
555.032	3156
555.129	3166
555.227	3558
555.324	8166
555.422	3498
555.519	3154
555.617	3171
555.715	3026
555.812	3511
555.91	3072
556.007	3139
556.105	3085
556.202	3190
556.299	3004
556.397	3062
556.494	2987
556.592	3059
556.689	3053
556.787	3094
556.884	2994
556.981	2974
557.079	3005
557.176	3076
557.273	3045
557.371	3161
557.468	3023
557.566	3056
557.663	3018
557.76	3071
557.857	2990
557.955	3117
558.052	3163
558.149	3122
558.247	3177
558.344	3015
558.441	3043
558.538	2974
558.636	3063
558.733	3165
558.83	3113
558.927	3032
559.024	3074
559.122	2992
559.219	3012
559.316	3203
559.413	3129
559.51	3006
559.607	2998
559.704	3134
559.801	3120
559.899	2990
559.996	3295
560.093	3027
560.19	3000
560.287	3236
560.384	3271
560.481	3058
560.578	3094
560.675	2993
560.772	3141
560.869	3095
560.966	3188
561.063	3044
561.16	3205
561.257	3155
561.354	3071
561.451	3038
561.548	3189
561.645	3286
561.742	3100
561.838	3121
561.935	3104
562.032	3130
562.129	3128
562.226	3099
562.323	3074
562.42	3179
562.516	3224
562.613	3116
562.71	3148
562.807	4003
562.904	3169
563	3136
563.097	3184
563.194	3167
563.291	3159
563.387	3201
563.484	3242
563.581	3162
563.678	3135
563.774	3588
563.871	3252
563.968	3223
564.064	3265
564.161	3210
564.258	3210
564.354	3423
564.451	3306
564.548	3372
564.644	3413
564.741	3427
564.837	3288
564.934	3452
565.031	3461
565.127	3392
565.224	3508
565.32	3780
565.417	3553
565.513	3646
565.61	3786
565.706	3897
565.803	3847
565.899	3896
565.996	3987
566.092	3919
566.189	4056
566.285	4143
566.382	4192
566.478	4589
566.574	4518
566.671	4463
566.767	4466
566.864	4541
566.96	4505
567.056	4504
567.153	4877
567.249	4762
567.345	4741
567.442	4964
567.538	4980
567.634	5001
567.731	4966
567.827	5088
567.923	5026
568.019	4664
568.116	4630
568.212	4433
568.308	4331
568.404	4266
568.501	4073
568.597	4026
568.693	3876
568.789	4458
568.885	3713
568.982	3655
569.078	3520
569.174	3537
569.27	3400
569.366	3510
569.462	3337
569.558	3313
569.655	3367
569.751	3221
569.847	3187
569.943	3168
570.039	3121
570.135	3569
570.231	3147
570.327	3371
570.423	3226
570.519	3175
570.615	3161
570.711	3244
570.807	3203
570.903	3221
570.999	3183
571.095	3169
571.191	3116
571.287	3172
571.383	3110
571.479	3031
571.574	3158
571.67	3006
571.766	3106
571.862	2943
571.958	2809
572.054	3020
572.15	2899
572.246	2779
572.341	2862
572.437	2768
572.533	2855
572.629	2750
572.725	2702
572.82	2684
572.916	2818
573.012	2690
573.108	2797
573.203	2619
573.299	2597
573.395	2583
573.49	2513
573.586	2504
573.682	2636
573.778	2755
573.873	2492
573.969	2569
574.065	2569
574.16	2535
574.256	2591
574.351	2728
574.447	2490
574.543	2595
574.638	2620
574.734	2536
574.829	2771
574.925	2576
575.02	2518
575.116	2495
575.212	2468
575.307	2617
575.403	2361
575.498	2465
575.594	2437
575.689	2476
575.784	2435
575.88	2515
575.975	2447
576.071	2378
576.166	2389
576.262	2344
576.357	2303
576.452	2572
576.548	2402
576.643	2309
576.739	2400
576.834	2371
576.929	2356
577.025	3007
577.12	2302
577.215	2196
577.311	2293
577.406	2315
577.501	2449
577.597	2203
577.692	2404
577.787	2449
577.882	2168
577.978	2259
578.073	2173
578.168	2138
578.263	2122
578.358	2176
578.454	2123
578.549	2132
578.644	2146
578.739	2170
578.834	2059
578.929	2051
579.025	2011
579.12	2144
579.215	2301
579.31	2313
579.405	1969
579.5	2103
579.595	2112
579.69	1973
579.785	1997
579.88	2008
579.975	2022
580.07	1973
580.165	2019
580.26	2146
580.355	1998
580.45	1926
580.545	1968
580.64	2006
580.735	2071
580.83	2022
580.925	1905
581.02	1899
581.115	1980
581.21	1882
581.305	1895
581.4	1954
581.495	1968
581.589	1926
581.684	1860
581.779	1988
581.874	1900
581.969	1962
582.064	1879
582.158	1889
582.253	1772
582.348	1799
582.443	1843
582.537	1857
582.632	2026
582.727	1889
582.822	1730
582.916	1758
583.011	1797
583.106	1829
583.201	1736
583.295	1827
583.39	1696
583.485	1752
583.579	3581
583.674	1990
583.769	2067
583.863	1776
583.958	1782
584.052	1683
584.147	1780
584.242	1766
584.336	1693
584.431	1899
584.525	1674
584.62	1853
584.714	1722
584.809	1769
584.903	1700
584.998	1735
585.092	1666
585.187	1693
585.281	1639
585.376	1671
585.47	1742
585.565	1657
585.659	1648
585.754	1722
585.848	1614
585.942	1604
586.037	1657
586.131	3934
586.226	1709
586.32	1704
586.414	1562
586.509	1674
586.603	1703
586.697	1624
586.792	1636
586.886	1556
586.98	1759
587.075	1549
587.169	1555
587.263	1826
587.357	1636
587.452	1549
587.546	1714
587.64	1654
587.734	1605
587.829	1624
587.923	1615
588.017	1570
588.111	1511
588.205	1732
588.3	1550
588.394	1520
588.488	1583
588.582	1685
588.676	1706
588.77	2031
588.864	3178
588.958	3365
589.052	2823
589.147	2286
589.241	1864
589.335	1790
589.429	2356
589.523	2742
589.617	2569
589.711	2161
589.805	1832
589.899	1681
589.993	1581
590.087	1569
590.181	1490
590.275	1582
590.369	1530
590.462	1464
590.556	1479
590.65	1431
590.744	1503
590.838	1427
590.932	1476
591.026	1540
591.12	1653
591.214	1501
591.307	1525
591.401	1479
591.495	1636
591.589	1493
591.683	1521
591.777	1527
591.87	1927
591.964	1581
592.058	1478
592.152	1609
592.245	1528
592.339	1607
592.433	1677
592.527	1674
592.62	1557
592.714	1616
592.808	1766
592.901	1658
592.995	1529
593.089	1904
593.182	1715
593.276	1688
593.37	1568
593.463	1566
593.557	1608
593.65	1552
593.744	1666
593.837	1741
593.931	1615
594.025	4850
594.118	1860
594.212	1594
594.305	1621
594.399	1622
594.492	1856
594.586	1550
594.679	1511
594.773	1504
594.866	1545
594.96	1540
595.053	1401
595.146	1466
595.24	1465
595.333	1366
595.427	1291
595.52	1392
595.614	1517
595.707	1390
595.8	1367
595.894	1378
595.987	1316
596.08	1268
596.174	1664
596.267	1387
596.36	1447
596.454	1491
596.547	1379
596.64	1249
596.733	1240
596.827	1255
596.92	1256
597.013	1196
597.106	1189
597.2	1189
597.293	1134
597.386	1453
597.479	1315
597.572	1222
597.666	1174
597.759	1177
597.852	1219
597.945	1170
598.038	1144
598.131	1148
598.224	1173
598.317	1229
598.411	1202
598.504	1129
598.597	1282
598.69	1127
598.783	1127
598.876	1239
598.969	1186
599.062	1106
599.155	1199
599.248	1133
599.341	1214
599.434	1203
599.527	1175
599.62	1141
599.713	1140
599.806	1245
599.899	1277
599.991	1113
600.084	1412
600.177	1114
600.27	1137
600.363	1366
600.456	1116
600.549	1153
600.642	1074
600.734	1105
600.827	1128
600.92	1233
601.013	1191
601.106	1183
601.199	1093
601.291	1135
601.384	1111
601.477	1375
601.57	1290
601.662	1138
601.755	1148
601.848	1171
601.94	1076
602.033	1239
602.126	1174
602.219	1100
602.311	1245
602.404	1111
602.497	1117
602.589	1077
602.682	1108
602.774	1138
602.867	1118
602.96	1081
603.052	1141
603.145	1043
603.237	1110
603.33	1096
603.422	1212
603.515	1019
603.608	1102
603.7	1151
603.793	1137
603.885	1098
603.978	1111
604.07	1058
604.163	1061
604.255	1141
604.347	1014
604.44	1004
604.532	1095
604.625	1068
604.717	1054
604.81	1102
604.902	1051
604.994	984
605.087	1037
605.179	1095
605.271	1067
605.364	1072
605.456	1171
605.548	1053
605.641	1074
605.733	1082
605.825	1119
605.918	1025
606.01	1239
606.102	1571
606.194	1061
606.287	1189
606.379	1082
606.471	1059
606.563	1113
606.655	1164
606.748	1127
606.84	1028
606.932	1141
607.024	1043
607.116	1003
607.208	1046
607.301	1117
607.393	1046
607.485	1061
607.577	1174
607.669	1109
607.761	1102
607.853	1370
607.945	1006
608.037	1005
608.129	1061
608.221	1023
608.313	1009
608.405	1097
608.497	1071
608.589	1020
608.681	1060
608.773	1161
608.865	1075
608.957	1023
609.049	1078
609.141	1153
609.233	1024
609.325	979
609.417	1005
609.509	1113
609.601	1152
609.693	1175
609.784	1013
609.876	1017
609.968	1098
610.06	3122
610.152	1267
610.244	1347
610.335	1030
610.427	1023
610.519	1026
610.611	1020
610.702	951
610.794	1037
610.886	1066
610.978	1022
611.069	1462
611.161	1005
611.253	1021
611.344	938
611.436	933
611.528	979
611.62	876
611.711	901
611.803	887
611.894	831
611.986	835
612.078	883
612.169	892
612.261	864
612.352	851
612.444	769
612.536	900
612.627	906
612.719	770
612.81	724
612.902	735
612.993	754
613.085	733
613.176	649
613.268	707
613.359	650
613.451	662
613.542	785
613.634	633
613.725	738
613.816	759
613.908	641
613.999	617
614.091	590
614.182	535
614.273	624
614.365	550
614.456	514
614.547	519
614.639	431
614.73	534
614.821	545
614.913	439
615.004	445
615.095	367
615.187	361
