Data from 14g_HRC06701__31__214.txt Node

Date: Thu Apr 18 01:58:25 CDT 2024
User: Estudiantes 2
Spectrometer: HR+C0670
Trigger mode: 4
Integration Time (sec): 1.000000E0
Scans to average: 1
Electric dark correction enabled: true
Nonlinearity correction enabled: false
Boxcar width: 0
XAxis mode: Wavelengths
Number of Pixels in Spectrum: 2048
>>>>>Begin Spectral Data<<<<<
407.81	-105.81
407.921	-105.81
408.032	-105.81
408.143	-139.81
408.254	-137.81
408.365	63.19
408.476	254.19
408.587	-26.81
408.699	44.19
408.81	-34.81
408.921	-64.81
409.032	-7.81
409.143	29.19
409.254	7.19
409.365	78.19
409.476	-25.81
409.587	5.19
409.698	62.19
409.809	105.19
409.92	-51.81
410.031	-16.81
410.142	108.19
410.253	-0.81
410.364	25.19
410.475	173.19
410.585	897.19
410.696	1069.19
410.807	1072.19
410.918	1024.19
411.029	1114.19
411.14	1062.19
411.251	981.19
411.362	1070.19
411.472	1061.19
411.583	1130.19
411.694	1093.19
411.805	1076.19
411.916	1114.19
412.026	1140.19
412.137	1056.19
412.248	1072.19
412.359	1071.19
412.47	1011.19
412.58	995.19
412.691	1088.19
412.802	1006.19
412.912	988.19
413.023	1033.19
413.134	1016.19
413.245	1130.19
413.355	1076.19
413.466	987.19
413.577	1046.19
413.687	1057.19
413.798	945.19
413.909	1089.19
414.019	1034.19
414.13	1095.19
414.24	1032.19
414.351	1141.19
414.462	1356.19
414.572	1133.19
414.683	1114.19
414.793	1100.19
414.904	1302.19
415.014	1069.19
415.125	1001.19
415.235	1085.19
415.346	1193.19
415.456	1213.19
415.567	1101.19
415.677	1063.19
415.788	1083.19
415.898	1080.19
416.009	1021.19
416.119	1084.19
416.23	1058.19
416.34	989.19
416.45	1073.19
416.561	1865.19
416.671	1160.19
416.782	1000.19
416.892	1050.19
417.002	1167.19
417.113	1103.19
417.223	1068.19
417.333	1131.19
417.444	1059.19
417.554	1115.19
417.664	1244.19
417.775	1036.19
417.885	1111.19
417.995	1143.19
418.106	1309.19
418.216	1157.19
418.326	1214.19
418.436	1250.19
418.547	1143.19
418.657	1150.19
418.767	1341.19
418.877	1186.19
418.987	1208.19
419.098	1244.19
419.208	1241.19
419.318	1308.19
419.428	1328.19
419.538	1186.19
419.648	1180.19
419.759	1318.19
419.869	1320.19
419.979	1222.19
420.089	1213.19
420.199	1261.19
420.309	1231.19
420.419	1284.19
420.529	1316.19
420.639	1711.19
420.749	1278.19
420.859	1341.19
420.969	1315.19
421.079	1496.19
421.189	1317.19
421.299	1356.19
421.409	1219.19
421.519	1288.19
421.629	1398.19
421.739	1245.19
421.849	1243.19
421.959	1279.19
422.069	1344.19
422.179	1260.19
422.289	1335.19
422.399	1346.19
422.509	1412.19
422.619	3816.19
422.729	1654.19
422.838	1385.19
422.948	1407.19
423.058	1392.19
423.168	1407.19
423.278	1423.19
423.388	1489.19
423.498	1558.19
423.607	1468.19
423.717	1733.19
423.827	1780.19
423.937	1511.19
424.046	1616.19
424.156	1632.19
424.266	1489.19
424.376	1721.19
424.485	1739.19
424.595	1511.19
424.705	1479.19
424.815	1634.19
424.924	1969.19
425.034	1612.19
425.144	1600.19
425.253	1558.19
425.363	1609.19
425.473	1645.19
425.582	1503.19
425.692	1538.19
425.801	1476.19
425.911	1774.19
426.021	1617.19
426.13	1690.19
426.24	1834.19
426.349	1654.19
426.459	1700.19
426.568	1631.19
426.678	1728.19
426.787	1616.19
426.897	1595.19
427.006	1657.19
427.116	1742.19
427.225	1659.19
427.335	1849.19
427.444	1668.19
427.554	1727.19
427.663	1760.19
427.773	1739.19
427.882	1723.19
427.992	1795.19
428.101	1738.19
428.21	1643.19
428.32	1751.19
428.429	1687.19
428.539	2006.19
428.648	1723.19
428.757	1808.19
428.867	1832.19
428.976	1853.19
429.085	1914.19
429.195	1819.19
429.304	1766.19
429.413	1897.19
429.523	1893.19
429.632	1847.19
429.741	1852.19
429.85	1825.19
429.96	1872.19
430.069	1839.19
430.178	1836.19
430.287	2138.19
430.397	1914.19
430.506	1889.19
430.615	1847.19
430.724	1912.19
430.833	1919.19
430.943	1884.19
431.052	1948.19
431.161	1873.19
431.27	2007.19
431.379	1910.19
431.488	2134.19
431.597	2062.19
431.706	2120.19
431.816	2091.19
431.925	2042.19
432.034	1937.19
432.143	2062.19
432.252	2118.19
432.361	2102.19
432.47	2029.19
432.579	2099.19
432.688	2027.19
432.797	2028.19
432.906	1994.19
433.015	2171.19
433.124	2347.19
433.233	2104.19
433.342	2160.19
433.451	2010.19
433.56	2024.19
433.669	2077.19
433.778	1994.19
433.886	2086.19
433.995	2113.19
434.104	2253.19
434.213	2117.19
434.322	2142.19
434.431	2289.19
434.54	2216.19
434.649	2383.19
434.757	2430.19
434.866	2297.19
434.975	2297.19
435.084	2308.19
435.193	2195.19
435.301	2349.19
435.41	2446.19
435.519	2538.19
435.628	2016.19
435.737	1924.19
435.845	1981.19
435.954	1911.19
436.063	1928.19
436.171	1992.19
436.28	1930.19
436.389	2074.19
436.498	1937.19
436.606	1959.19
436.715	2110.19
436.823	1887.19
436.932	1856.19
437.041	1813.19
437.149	1906.19
437.258	1840.19
437.367	1800.19
437.475	1830.19
437.584	2113.19
437.692	1755.19
437.801	3262.19
437.91	1936.19
438.018	1726.19
438.127	1743.19
438.235	1878.19
438.344	1778.19
438.452	1829.19
438.561	1740.19
438.669	1806.19
438.778	1720.19
438.886	1757.19
438.995	1685.19
439.103	1712.19
439.212	1795.19
439.32	1822.19
439.428	1702.19
439.537	1777.19
439.645	1893.19
439.754	1821.19
439.862	1770.19
439.97	1836.19
440.079	1788.19
440.187	1729.19
440.295	1937.19
440.404	1814.19
440.512	1789.19
440.62	1877.19
440.729	1978.19
440.837	1921.19
440.945	2524.19
441.054	2010.19
441.162	1957.19
441.27	2077.19
441.378	2026.19
441.487	2075.19
441.595	2395.19
441.703	2116.19
441.811	2110.19
441.92	1942.19
442.028	1854.19
442.136	2066.19
442.244	1964.19
442.352	1937.19
442.461	1901.19
442.569	1881.19
442.677	1923.19
442.785	1941.19
442.893	1953.19
443.001	1864.19
443.109	1881.19
443.217	1934.19
443.325	1889.19
443.434	2441.19
443.542	2216.19
443.65	1905.19
443.758	2091.19
443.866	2064.19
443.974	2284.19
444.082	2093.19
444.19	2158.19
444.298	2249.19
444.406	2295.19
444.514	2316.19
444.622	2413.19
444.73	2367.19
444.838	2284.19
444.946	2352.19
445.054	2121.19
445.161	2102.19
445.269	2030.19
445.377	2061.19
445.485	1993.19
445.593	1988.19
445.701	2241.19
445.809	1979.19
445.917	1980.19
446.025	1897.19
446.132	1985.19
446.24	1958.19
446.348	2095.19
446.456	1869.19
446.564	1959.19
446.671	1955.19
446.779	1944.19
446.887	1901.19
446.995	1964.19
447.102	1960.19
447.21	1920.19
447.318	1924.19
447.426	1964.19
447.533	2097.19
447.641	3145.19
447.749	2050.19
447.856	1887.19
447.964	1925.19
448.072	2097.19
448.179	1873.19
448.287	1900.19
448.395	1991.19
448.502	1923.19
448.61	1938.19
448.718	1907.19
448.825	2020.19
448.933	1905.19
449.04	1883.19
449.148	2049.19
449.256	1893.19
449.363	1962.19
449.471	2054.19
449.578	2042.19
449.686	1910.19
449.793	2135.19
449.901	2010.19
450.008	2032.19
450.116	2046.19
450.223	2027.19
450.331	2145.19
450.438	2189.19
450.546	2286.19
450.653	2198.19
450.76	2294.19
450.868	2318.19
450.975	2414.19
451.083	2215.19
451.19	2405.19
451.297	2327.19
451.405	2304.19
451.512	2333.19
451.619	2441.19
451.727	2426.19
451.834	2235.19
451.941	2317.19
452.049	2279.19
452.156	2318.19
452.263	2341.19
452.371	2321.19
452.478	2349.19
452.585	2502.19
452.692	2351.19
452.8	2299.19
452.907	2483.19
453.014	2397.19
453.121	2405.19
453.229	2488.19
453.336	2485.19
453.443	2468.19
453.55	2319.19
453.657	2444.19
453.765	2405.19
453.872	2428.19
453.979	2489.19
454.086	2452.19
454.193	2485.19
454.3	2395.19
454.407	2645.19
454.514	2524.19
454.621	2421.19
454.729	2521.19
454.836	2444.19
454.943	2534.19
455.05	2460.19
455.157	2572.19
455.264	2442.19
455.371	2552.19
455.478	2501.19
455.585	2764.19
455.692	2590.19
455.799	2695.19
455.906	2473.19
456.013	2558.19
456.12	2571.19
456.227	2509.19
456.334	2588.19
456.44	2710.19
456.547	2542.19
456.654	2561.19
456.761	2623.19
456.868	2754.19
456.975	2625.19
457.082	2577.19
457.189	2541.19
457.296	2680.19
457.402	2646.19
457.509	2612.19
457.616	2670.19
457.723	2815.19
457.83	2756.19
457.936	2576.19
458.043	3056.19
458.15	2827.19
458.257	2906.19
458.363	2905.19
458.47	2920.19
458.577	3033.19
458.684	2831.19
458.79	3094.19
458.897	3197.19
459.004	3196.19
459.11	3145.19
459.217	3264.19
459.324	3268.19
459.43	3354.19
459.537	3529.19
459.644	3376.19
459.75	3302.19
459.857	3727.19
459.964	3611.19
460.07	3572.19
460.177	3596.19
460.283	3653.19
460.39	3794.19
460.496	3651.19
460.603	3674.19
460.71	3533.19
460.816	3565.19
460.923	3529.19
461.029	3529.19
461.136	3554.19
461.242	3574.19
461.349	3646.19
461.455	3515.19
461.562	3836.19
461.668	3723.19
461.774	3565.19
461.881	3738.19
461.987	3755.19
462.094	3834.19
462.2	3884.19
462.307	3948.19
462.413	3803.19
462.519	3903.19
462.626	4325.19
462.732	4349.19
462.838	4525.19
462.945	4698.19
463.051	4807.19
463.157	4553.19
463.264	4490.19
463.37	4385.19
463.476	4123.19
463.583	4055.19
463.689	4028.19
463.795	4017.19
463.901	4157.19
464.008	4299.19
464.114	4139.19
464.22	4042.19
464.326	4020.19
464.433	3917.19
464.539	3848.19
464.645	3762.19
464.751	3927.19
464.857	3599.19
464.963	3413.19
465.07	3361.19
465.176	3261.19
465.282	3145.19
465.388	3114.19
465.494	2968.19
465.6	2911.19
465.706	2754.19
465.812	2815.19
465.918	2859.19
466.024	2753.19
466.131	2858.19
466.237	2739.19
466.343	2618.19
466.449	2563.19
466.555	2518.19
466.661	2469.19
466.767	2581.19
466.873	2461.19
466.979	2554.19
467.085	2517.19
467.191	2513.19
467.296	2486.19
467.402	2396.19
467.508	2528.19
467.614	2529.19
467.72	2347.19
467.826	2330.19
467.932	2373.19
468.038	2205.19
468.144	2287.19
468.25	2225.19
468.355	2233.19
468.461	2256.19
468.567	2229.19
468.673	2254.19
468.779	2213.19
468.885	2262.19
468.99	2158.19
469.096	2173.19
469.202	2364.19
469.308	2269.19
469.413	2213.19
469.519	2286.19
469.625	2262.19
469.731	2300.19
469.836	2309.19
469.942	2565.19
470.048	2339.19
470.153	2371.19
470.259	2433.19
470.365	2431.19
470.47	2331.19
470.576	2378.19
470.682	2271.19
470.787	2189.19
470.893	2199.19
470.999	2251.19
471.104	2218.19
471.21	2019.19
471.315	2035.19
471.421	1975.19
471.527	2292.19
471.632	2181.19
471.738	2063.19
471.843	1984.19
471.949	1995.19
472.054	1994.19
472.16	1894.19
472.265	2018.19
472.371	1905.19
472.476	1883.19
472.582	1977.19
472.687	1936.19
472.793	1830.19
472.898	1904.19
473.003	1896.19
473.109	1801.19
473.214	1791.19
473.32	1873.19
473.425	1896.19
473.53	1844.19
473.636	1855.19
473.741	1828.19
473.847	1781.19
473.952	1863.19
474.057	1917.19
474.163	1849.19
474.268	1806.19
474.373	1968.19
474.478	1773.19
474.584	1753.19
474.689	1853.19
474.794	1876.19
474.9	2050.19
475.005	1862.19
475.11	1975.19
475.215	1763.19
475.321	1801.19
475.426	1956.19
475.531	1925.19
475.636	1844.19
475.741	1856.19
475.846	1956.19
475.952	2032.19
476.057	1928.19
476.162	1955.19
476.267	2030.19
476.372	2183.19
476.477	1854.19
476.582	1921.19
476.687	1820.19
476.793	1947.19
476.898	1849.19
477.003	1894.19
477.108	1914.19
477.213	1899.19
477.318	1928.19
477.423	2033.19
477.528	2042.19
477.633	2094.19
477.738	2110.19
477.843	1997.19
477.948	2000.19
478.053	2065.19
478.158	2166.19
478.263	2151.19
478.368	2102.19
478.473	2233.19
478.578	2146.19
478.682	2128.19
478.787	2261.19
478.892	2182.19
478.997	2284.19
479.102	2261.19
479.207	2198.19
479.312	2286.19
479.417	2192.19
479.521	2161.19
479.626	2297.19
479.731	2216.19
479.836	2271.19
479.941	2413.19
480.045	2383.19
480.15	2416.19
480.255	2386.19
480.36	2383.19
480.465	2428.19
480.569	2525.19
480.674	2298.19
480.779	2191.19
480.883	2251.19
480.988	2308.19
481.093	2231.19
481.197	2222.19
481.302	2151.19
481.407	2238.19
481.511	3386.19
481.616	2305.19
481.721	2245.19
481.825	2413.19
481.93	2126.19
482.035	2143.19
482.139	2289.19
482.244	2202.19
482.348	2161.19
482.453	2252.19
482.557	2350.19
482.662	2230.19
482.767	2132.19
482.871	2262.19
482.976	2152.19
483.08	2311.19
483.185	2411.19
483.289	2239.19
483.394	2282.19
483.498	2377.19
483.603	2338.19
483.707	2325.19
483.811	2437.19
483.916	2454.19
484.02	2373.19
484.125	2445.19
484.229	2469.19
484.333	2593.19
484.438	2431.19
484.542	2469.19
484.647	2437.19
484.751	2499.19
484.855	2540.19
484.96	2562.19
485.064	2555.19
485.168	2564.19
485.273	2610.19
485.377	2615.19
485.481	2765.19
485.585	2678.19
485.69	2679.19
485.794	2662.19
485.898	2826.19
486.002	2657.19
486.107	2717.19
486.211	2724.19
486.315	2805.19
486.419	2740.19
486.524	2785.19
486.628	2726.19
486.732	2672.19
486.836	2689.19
486.94	2837.19
487.044	2676.19
487.148	2686.19
487.253	2705.19
487.357	2717.19
487.461	2814.19
487.565	2740.19
487.669	2713.19
487.773	2675.19
487.877	2752.19
487.981	2788.19
488.085	2745.19
488.189	2702.19
488.293	2871.19
488.397	3126.19
488.501	2736.19
488.605	2706.19
488.709	2687.19
488.813	2710.19
488.917	2693.19
489.021	2670.19
489.125	2844.19
489.229	2697.19
489.333	2905.19
489.437	2729.19
489.541	2726.19
489.645	2766.19
489.749	2733.19
489.853	2840.19
489.956	2813.19
490.06	2815.19
490.164	2765.19
490.268	2724.19
490.372	2775.19
490.476	2786.19
490.579	2744.19
490.683	3388.19
490.787	2907.19
490.891	2660.19
490.995	2841.19
491.098	2747.19
491.202	2756.19
491.306	2854.19
491.41	2796.19
491.513	2688.19
491.617	2741.19
491.721	3015.19
491.824	2974.19
491.928	2755.19
492.032	3082.19
492.136	2783.19
492.239	2727.19
492.343	2872.19
492.446	3136.19
492.55	2781.19
492.654	2745.19
492.757	2725.19
492.861	2916.19
492.965	2754.19
493.068	2781.19
493.172	2778.19
493.275	2748.19
493.379	2778.19
493.482	2909.19
493.586	2870.19
493.689	3006.19
493.793	2809.19
493.896	2937.19
494	2908.19
494.103	2885.19
494.207	3112.19
494.31	3211.19
494.414	2896.19
494.517	2804.19
494.621	2701.19
494.724	2787.19
494.828	2795.19
494.931	2724.19
495.034	2780.19
495.138	2873.19
495.241	2724.19
495.345	3492.19
495.448	2852.19
495.551	2733.19
495.655	2704.19
495.758	2716.19
495.861	2714.19
495.965	2658.19
496.068	2786.19
496.171	2815.19
496.274	2718.19
496.378	2851.19
496.481	2760.19
496.584	2739.19
496.687	2908.19
496.791	2811.19
496.894	2888.19
496.997	2853.19
497.1	2834.19
497.204	2847.19
497.307	2742.19
497.41	3069.19
497.513	3023.19
497.616	2857.19
497.719	3019.19
497.823	2997.19
497.926	3000.19
498.029	3245.19
498.132	3153.19
498.235	3191.19
498.338	3384.19
498.441	3508.19
498.544	3491.19
498.647	3679.19
498.75	3796.19
498.853	3994.19
498.956	3983.19
499.059	4268.19
499.163	4261.19
499.266	4421.19
499.369	4592.19
499.471	4822.19
499.574	5069.19
499.677	5315.19
499.78	5564.19
499.883	5942.19
499.986	6410.19
500.089	6792.19
500.192	6920.19
500.295	6976.19
500.398	6976.19
500.501	6769.19
500.604	6454.19
500.707	6216.19
500.809	5875.19
500.912	5658.19
501.015	5320.19
501.118	4931.19
501.221	4767.19
501.324	4422.19
501.426	4223.19
501.529	3992.19
501.632	3812.19
501.735	3669.19
501.837	3582.19
501.94	3432.19
502.043	3411.19
502.146	3284.19
502.248	3349.19
502.351	3173.19
502.454	3052.19
502.557	2992.19
502.659	2968.19
502.762	2823.19
502.865	2809.19
502.967	2702.19
503.07	2712.19
503.173	2720.19
503.275	2522.19
503.378	2617.19
503.48	2536.19
503.583	2648.19
503.686	2596.19
503.788	2739.19
503.891	2457.19
503.993	2740.19
504.096	2584.19
504.198	2588.19
504.301	2476.19
504.403	2680.19
504.506	2540.19
504.608	2490.19
504.711	2508.19
504.813	2490.19
504.916	2329.19
505.018	2273.19
505.121	2170.19
505.223	2254.19
505.326	2134.19
505.428	2288.19
505.531	2170.19
505.633	2103.19
505.735	2093.19
505.838	1977.19
505.94	2044.19
506.042	2023.19
506.145	1912.19
506.247	2075.19
506.35	1957.19
506.452	2022.19
506.554	1988.19
506.656	2030.19
506.759	1962.19
506.861	1949.19
506.963	1902.19
507.066	2000.19
507.168	1969.19
507.27	1893.19
507.372	1931.19
507.475	1900.19
507.577	1911.19
507.679	1878.19
507.781	1928.19
507.883	1830.19
507.986	1774.19
508.088	1886.19
508.19	1825.19
508.292	1862.19
508.394	1831.19
508.496	1782.19
508.598	1818.19
508.701	1860.19
508.803	1809.19
508.905	1695.19
509.007	1831.19
509.109	1825.19
509.211	1844.19
509.313	1796.19
509.415	1757.19
509.517	1838.19
509.619	1721.19
509.721	1846.19
509.823	1758.19
509.925	1964.19
510.027	1827.19
510.129	1743.19
510.231	1809.19
510.333	1731.19
510.435	1721.19
510.537	1832.19
510.639	1819.19
510.741	1775.19
510.843	1815.19
510.945	1738.19
511.047	1908.19
511.148	1784.19
511.25	1734.19
511.352	1788.19
511.454	1652.19
511.556	1801.19
511.658	1822.19
511.76	1798.19
511.861	1904.19
511.963	1766.19
512.065	1740.19
512.167	1742.19
512.268	1941.19
512.37	1844.19
512.472	1751.19
512.574	1844.19
512.676	1892.19
512.777	1717.19
512.879	1745.19
512.981	1779.19
513.082	1799.19
513.184	1744.19
513.286	2330.19
513.387	1895.19
513.489	1957.19
513.591	1896.19
513.692	1982.19
513.794	1872.19
513.896	1696.19
513.997	1805.19
514.099	1762.19
514.2	1916.19
514.302	1860.19
514.404	1801.19
514.505	1761.19
514.607	1927.19
514.708	1855.19
514.81	1878.19
514.911	1905.19
515.013	1989.19
515.114	1924.19
515.216	1942.19
515.317	1988.19
515.419	1928.19
515.52	1937.19
515.622	1981.19
515.723	1935.19
515.825	2078.19
515.926	2059.19
516.027	2035.19
516.129	2021.19
516.23	2152.19
516.332	2218.19
516.433	2156.19
516.534	2310.19
516.636	2249.19
516.737	2226.19
516.838	3305.19
516.94	2507.19
517.041	2472.19
517.142	2677.19
517.244	2757.19
517.345	2687.19
517.446	2721.19
517.547	2729.19
517.649	2671.19
517.75	2764.19
517.851	2766.19
517.952	3020.19
518.054	2661.19
518.155	2797.19
518.256	2556.19
518.357	2562.19
518.458	2404.19
518.56	2362.19
518.661	2440.19
518.762	2323.19
518.863	2356.19
518.964	2439.19
519.065	2200.19
519.166	2172.19
519.268	2251.19
519.369	2397.19
519.47	2135.19
519.571	2202.19
519.672	2135.19
519.773	2111.19
519.874	2199.19
519.975	2189.19
520.076	2115.19
520.177	2166.19
520.278	2130.19
520.379	2073.19
520.48	1993.19
520.581	2096.19
520.682	1982.19
520.783	2042.19
520.884	2158.19
520.985	2021.19
521.086	2031.19
521.187	2115.19
521.288	2024.19
521.389	2068.19
521.489	2083.19
521.59	2030.19
521.691	2036.19
521.792	1995.19
521.893	2201.19
521.994	2149.19
522.095	2033.19
522.195	2145.19
522.296	2152.19
522.397	2115.19
522.498	2096.19
522.599	1936.19
522.699	1969.19
522.8	2105.19
522.901	2154.19
523.002	2052.19
523.102	2251.19
523.203	2107.19
523.304	2158.19
523.405	1988.19
523.505	2148.19
523.606	2059.19
523.707	2075.19
523.807	2066.19
523.908	2022.19
524.009	2221.19
524.109	2112.19
524.21	2012.19
524.31	2081.19
524.411	2166.19
524.512	2180.19
524.612	2065.19
524.713	2196.19
524.813	2091.19
524.914	2263.19
525.014	7452.19
525.115	2541.19
525.216	1989.19
525.316	2068.19
525.417	2106.19
525.517	2077.19
525.618	2037.19
525.718	2043.19
525.819	2057.19
525.919	2008.19
526.019	2010.19
526.12	2160.19
526.22	1988.19
526.321	2026.19
526.421	2011.19
526.522	2011.19
526.622	1955.19
526.722	1991.19
526.823	2108.19
526.923	2005.19
527.023	2138.19
527.124	2055.19
527.224	2070.19
527.324	1988.19
527.425	2007.19
527.525	1959.19
527.625	2046.19
527.726	2024.19
527.826	2113.19
527.926	2009.19
528.026	2057.19
528.127	2016.19
528.227	2006.19
528.327	2088.19
528.427	2074.19
528.528	2046.19
528.628	2049.19
528.728	2081.19
528.828	2127.19
528.928	2105.19
529.029	2068.19
529.129	2089.19
529.229	2058.19
529.329	2096.19
529.429	2159.19
529.529	2070.19
529.629	2036.19
529.729	2041.19
529.829	2171.19
529.93	1944.19
530.03	2103.19
530.13	1965.19
530.23	2003.19
530.33	2161.19
530.43	1974.19
530.53	2007.19
530.63	2039.19
530.73	1877.19
530.83	1847.19
530.93	1918.19
531.03	2038.19
531.13	1991.19
531.23	1872.19
531.33	2023.19
531.429	2037.19
531.529	2045.19
531.629	2018.19
531.729	1912.19
531.829	1864.19
531.929	1927.19
532.029	1968.19
532.129	1928.19
532.229	2005.19
532.328	1935.19
532.428	1870.19
532.528	1867.19
532.628	1872.19
532.728	1908.19
532.827	1872.19
532.927	1964.19
533.027	1854.19
533.127	2006.19
533.227	1900.19
533.326	1964.19
533.426	1815.19
533.526	2004.19
533.625	2093.19
533.725	2121.19
533.825	1934.19
533.924	1859.19
534.024	1749.19
534.124	1783.19
534.223	1837.19
534.323	2174.19
534.423	1858.19
534.522	1849.19
534.622	1697.19
534.722	1748.19
534.821	1804.19
534.921	1745.19
535.02	1644.19
535.12	1818.19
535.219	1909.19
535.319	1828.19
535.419	1800.19
535.518	1744.19
535.618	1742.19
535.717	1797.19
535.817	1645.19
535.916	1623.19
536.016	1752.19
536.115	1642.19
536.215	1705.19
536.314	1580.19
536.413	1536.19
536.513	1655.19
536.612	1623.19
536.712	1525.19
536.811	1557.19
536.91	1517.19
537.01	1591.19
537.109	1625.19
537.209	1594.19
537.308	1551.19
537.407	1540.19
537.507	1585.19
537.606	1536.19
537.705	1613.19
537.805	1629.19
537.904	1548.19
538.003	1530.19
538.102	1744.19
538.202	1531.19
538.301	1616.19
538.4	1625.19
538.499	1547.19
538.599	1589.19
538.698	1818.19
538.797	1587.19
538.896	1663.19
538.995	1545.19
539.095	1562.19
539.194	1755.19
539.293	1521.19
539.392	1542.19
539.491	1535.19
539.59	1499.19
539.689	1611.19
539.789	1602.19
539.888	1392.19
539.987	1384.19
540.086	1507.19
540.185	1468.19
540.284	1560.19
540.383	1532.19
540.482	1373.19
540.581	1451.19
540.68	1547.19
540.779	1469.19
540.878	1452.19
540.977	1533.19
541.076	1483.19
541.175	1508.19
541.274	1629.19
541.373	1656.19
541.472	1499.19
541.571	1456.19
541.67	2781.19
541.769	1601.19
541.868	1487.19
541.966	1588.19
542.065	1462.19
542.164	1431.19
542.263	1378.19
542.362	1419.19
542.461	1490.19
542.56	1524.19
542.658	1538.19
542.757	1391.19
542.856	1365.19
542.955	1442.19
543.054	1336.19
543.152	1515.19
543.251	1406.19
543.35	1524.19
543.449	1406.19
543.547	1448.19
543.646	1402.19
543.745	1453.19
543.843	1485.19
543.942	1516.19
544.041	1407.19
544.14	1453.19
544.238	1451.19
544.337	1615.19
544.436	1452.19
544.534	1663.19
544.633	1479.19
544.731	1473.19
544.83	1525.19
544.929	1467.19
545.027	1444.19
545.126	1383.19
545.224	1497.19
545.323	1400.19
545.421	1456.19
545.52	1492.19
545.619	1476.19
545.717	1391.19
545.816	1576.19
545.914	1489.19
546.013	1678.19
546.111	1635.19
546.209	1408.19
546.308	1432.19
546.406	1414.19
546.505	1653.19
546.603	1492.19
546.702	1398.19
546.8	1470.19
546.899	1379.19
546.997	1506.19
547.095	1602.19
547.194	1393.19
547.292	1419.19
547.39	1591.19
547.489	1413.19
547.587	1670.19
547.685	1468.19
547.784	1720.19
547.882	1487.19
547.98	1392.19
548.079	1605.19
548.177	1425.19
548.275	1400.19
548.373	1625.19
548.472	1388.19
548.57	1418.19
548.668	1522.19
548.766	1340.19
548.864	1493.19
548.963	1433.19
549.061	1664.19
549.159	1398.19
549.257	1518.19
549.355	1487.19
549.454	1465.19
549.552	1549.19
549.65	1557.19
549.748	1415.19
549.846	1422.19
549.944	1401.19
550.042	1401.19
550.14	1423.19
550.238	1476.19
550.336	1375.19
550.434	1371.19
550.532	1391.19
550.631	1484.19
550.729	1409.19
550.827	1430.19
550.925	1421.19
551.023	1379.19
551.121	1295.19
551.218	1444.19
551.316	1335.19
551.414	1330.19
551.512	1302.19
551.61	1353.19
551.708	1478.19
551.806	1447.19
551.904	1461.19
552.002	1338.19
552.1	1385.19
552.198	1482.19
552.296	1571.19
552.393	1647.19
552.491	1692.19
552.589	1620.19
552.687	1650.19
552.785	1578.19
552.882	1735.19
552.98	1821.19
553.078	1699.19
553.176	1718.19
553.274	1601.19
553.371	1585.19
553.469	1657.19
553.567	1573.19
553.665	1536.19
553.762	2009.19
553.86	1678.19
553.958	1530.19
554.055	1526.19
554.153	1608.19
554.251	1503.19
554.348	1554.19
554.446	1477.19
554.544	1455.19
554.641	1740.19
554.739	1478.19
554.837	1426.19
554.934	1480.19
555.032	1481.19
555.129	1366.19
555.227	1604.19
555.324	5329.19
555.422	1700.19
555.519	1389.19
555.617	1360.19
555.715	1308.19
555.812	1710.19
555.91	1317.19
556.007	1400.19
556.105	1262.19
556.202	1372.19
556.299	1311.19
556.397	1331.19
556.494	1268.19
556.592	1325.19
556.689	1368.19
556.787	1289.19
556.884	1263.19
556.981	1351.19
557.079	1249.19
557.176	1283.19
557.273	1322.19
557.371	1356.19
557.468	1331.19
557.566	1345.19
557.663	1225.19
557.76	1341.19
557.857	1323.19
557.955	1342.19
558.052	1309.19
558.149	1342.19
558.247	1469.19
558.344	1287.19
558.441	1258.19
558.538	1341.19
558.636	1293.19
558.733	1300.19
558.83	1351.19
558.927	1314.19
559.024	1311.19
559.122	1257.19
559.219	1276.19
559.316	1329.19
559.413	1409.19
559.51	1276.19
559.607	1312.19
559.704	1397.19
559.801	1394.19
559.899	1286.19
559.996	1482.19
560.093	1390.19
560.19	1237.19
560.287	1358.19
560.384	1538.19
560.481	1303.19
560.578	1325.19
560.675	1323.19
560.772	1416.19
560.869	1270.19
560.966	1396.19
561.063	1325.19
561.16	1328.19
561.257	1270.19
561.354	1364.19
561.451	1334.19
561.548	1351.19
561.645	1517.19
561.742	1297.19
561.838	1285.19
561.935	1319.19
562.032	1379.19
562.129	1316.19
562.226	1328.19
562.323	1335.19
562.42	1342.19
562.516	1291.19
562.613	1340.19
562.71	1302.19
562.807	2048.19
562.904	1354.19
563	1383.19
563.097	1314.19
563.194	1267.19
563.291	1308.19
563.387	1287.19
563.484	1320.19
563.581	1356.19
563.678	1321.19
563.774	1766.19
563.871	1438.19
563.968	1319.19
564.064	1369.19
564.161	1376.19
564.258	1408.19
564.354	1423.19
564.451	1437.19
564.548	1490.19
564.644	1430.19
564.741	1412.19
564.837	1476.19
564.934	1430.19
565.031	1451.19
565.127	1506.19
565.224	1528.19
565.32	1642.19
565.417	1577.19
565.513	1638.19
565.61	1631.19
565.706	1721.19
565.803	1783.19
565.899	1717.19
565.996	1776.19
566.092	1849.19
566.189	1823.19
566.285	1953.19
566.382	2021.19
566.478	2173.19
566.574	2225.19
566.671	2121.19
566.767	2148.19
566.864	2087.19
566.96	2215.19
567.056	2203.19
567.153	2440.19
567.249	2311.19
567.345	2397.19
567.442	2482.19
567.538	2537.19
567.634	2555.19
567.731	2567.19
567.827	2615.19
567.923	2609.19
568.019	2366.19
568.116	2286.19
568.212	2163.19
568.308	2173.19
568.404	1985.19
568.501	1924.19
568.597	1959.19
568.693	1826.19
568.789	2415.19
568.885	1779.19
568.982	1644.19
569.078	1535.19
569.174	1643.19
569.27	1509.19
569.366	1509.19
569.462	1519.19
569.558	1440.19
569.655	1497.19
569.751	1416.19
569.847	1460.19
569.943	1398.19
570.039	1284.19
570.135	1828.19
570.231	1366.19
570.327	1504.19
570.423	1479.19
570.519	1455.19
570.615	1344.19
570.711	1456.19
570.807	1454.19
570.903	1285.19
570.999	1430.19
571.095	1437.19
571.191	1391.19
571.287	1373.19
571.383	1446.19
571.479	1326.19
571.574	1408.19
571.67	1328.19
571.766	1466.19
571.862	1236.19
571.958	1222.19
572.054	1319.19
572.15	1138.19
572.246	1143.19
572.341	1338.19
572.437	1132.19
572.533	1211.19
572.629	1216.19
572.725	1115.19
572.82	1140.19
572.916	1300.19
573.012	1132.19
573.108	1182.19
573.203	1131.19
573.299	1117.19
573.395	1108.19
573.49	1000.19
573.586	1125.19
573.682	1092.19
573.778	1205.19
573.873	1078.19
573.969	1040.19
574.065	1069.19
574.16	1145.19
574.256	1080.19
574.351	1130.19
574.447	1048.19
574.543	1088.19
574.638	1143.19
574.734	1085.19
574.829	1313.19
574.925	1093.19
575.02	1072.19
575.116	1121.19
575.212	1085.19
575.307	1205.19
575.403	1088.19
575.498	1018.19
575.594	988.19
575.689	1089.19
575.784	1094.19
575.88	1003.19
575.975	1138.19
576.071	1026.19
576.166	943.19
576.262	992.19
576.357	1033.19
576.452	1119.19
576.548	992.19
576.643	1015.19
576.739	988.19
576.834	998.19
576.929	1017.19
577.025	1643.19
577.12	1006.19
577.215	963.19
577.311	1079.19
577.406	993.19
577.501	1069.19
577.597	934.19
577.692	1058.19
577.787	1022.19
577.882	992.19
577.978	925.19
578.073	935.19
578.168	891.19
578.263	906.19
578.358	885.19
578.454	878.19
578.549	871.19
578.644	827.19
578.739	944.19
578.834	886.19
578.929	856.19
579.025	865.19
579.12	999.19
579.215	1115.19
579.31	1040.19
579.405	882.19
579.5	936.19
579.595	841.19
579.69	823.19
579.785	853.19
579.88	825.19
579.975	837.19
580.07	868.19
580.165	853.19
580.26	952.19
580.355	956.19
580.45	820.19
580.545	749.19
580.64	873.19
580.735	934.19
580.83	848.19
580.925	815.19
581.02	785.19
581.115	767.19
581.21	731.19
581.305	887.19
581.4	800.19
581.495	799.19
581.589	783.19
581.684	711.19
581.779	887.19
581.874	833.19
581.969	897.19
582.064	746.19
582.158	760.19
582.253	765.19
582.348	741.19
582.443	793.19
582.537	803.19
582.632	976.19
582.727	770.19
582.822	749.19
582.916	696.19
583.011	760.19
583.106	859.19
583.201	747.19
583.295	749.19
583.39	719.19
583.485	681.19
583.579	2385.19
583.674	949.19
583.769	989.19
583.863	768.19
583.958	809.19
584.052	681.19
584.147	743.19
584.242	647.19
584.336	713.19
584.431	869.19
584.525	657.19
584.62	912.19
584.714	798.19
584.809	754.19
584.903	736.19
584.998	812.19
585.092	616.19
585.187	728.19
585.281	729.19
585.376	729.19
585.47	779.19
585.565	743.19
585.659	617.19
585.754	667.19
585.848	719.19
585.942	699.19
586.037	687.19
586.131	2897.19
586.226	939.19
586.32	709.19
586.414	645.19
586.509	773.19
586.603	740.19
586.697	652.19
586.792	682.19
586.886	644.19
586.98	783.19
587.075	678.19
587.169	649.19
587.263	826.19
587.357	710.19
587.452	647.19
587.546	740.19
587.64	592.19
587.734	703.19
587.829	699.19
587.923	684.19
588.017	706.19
588.111	649.19
588.205	738.19
588.3	674.19
588.394	600.19
588.488	612.19
588.582	693.19
588.676	746.19
588.77	807.19
588.864	1301.19
588.958	1351.19
589.052	1029.19
589.147	955.19
589.241	804.19
589.335	731.19
589.429	1049.19
589.523	1137.19
589.617	1061.19
589.711	880.19
589.805	764.19
589.899	777.19
589.993	620.19
590.087	582.19
590.181	633.19
590.275	680.19
590.369	629.19
590.462	609.19
590.556	571.19
590.65	602.19
590.744	632.19
590.838	610.19
590.932	607.19
591.026	680.19
591.12	804.19
591.214	589.19
591.307	631.19
591.401	687.19
591.495	729.19
591.589	628.19
591.683	694.19
591.777	697.19
591.87	992.19
591.964	754.19
592.058	661.19
592.152	740.19
592.245	688.19
592.339	821.19
592.433	811.19
592.527	703.19
592.62	773.19
592.714	757.19
592.808	759.19
592.901	812.19
592.995	717.19
593.089	1005.19
593.182	827.19
593.276	735.19
593.37	690.19
593.463	732.19
593.557	759.19
593.65	711.19
593.744	749.19
593.837	901.19
593.931	752.19
594.025	3940.19
594.118	1126.19
594.212	717.19
594.305	688.19
594.399	807.19
594.492	1025.19
594.586	715.19
594.679	656.19
594.773	654.19
594.866	701.19
594.96	695.19
595.053	665.19
595.146	634.19
595.24	569.19
595.333	634.19
595.427	548.19
595.52	584.19
595.614	769.19
595.707	598.19
595.8	561.19
595.894	604.19
595.987	524.19
596.08	529.19
596.174	904.19
596.267	733.19
596.36	654.19
596.454	666.19
596.547	634.19
596.64	490.19
596.733	491.19
596.827	620.19
596.92	528.19
597.013	440.19
597.106	459.19
597.2	503.19
597.293	437.19
597.386	725.19
597.479	630.19
597.572	583.19
597.666	450.19
597.759	505.19
597.852	633.19
597.945	430.19
598.038	494.19
598.131	489.19
598.224	471.19
598.317	599.19
598.411	516.19
598.504	421.19
598.597	569.19
598.69	522.19
598.783	443.19
598.876	521.19
598.969	511.19
599.062	397.19
599.155	505.19
599.248	489.19
599.341	512.19
599.434	407.19
599.527	516.19
599.62	444.19
599.713	392.19
599.806	569.19
599.899	685.19
599.991	420.19
600.084	669.19
600.177	493.19
600.27	385.19
600.363	636.19
600.456	503.19
600.549	493.19
600.642	400.19
600.734	445.19
600.827	428.19
600.92	533.19
601.013	455.19
601.106	552.19
601.199	426.19
601.291	413.19
601.384	493.19
601.477	630.19
601.57	543.19
601.662	437.19
601.755	436.19
601.848	484.19
601.94	467.19
602.033	583.19
602.126	452.19
602.219	444.19
602.311	584.19
602.404	431.19
602.497	458.19
602.589	460.19
602.682	451.19
602.774	443.19
602.867	506.19
602.96	430.19
603.052	447.19
603.145	487.19
603.237	458.19
603.33	465.19
603.422	559.19
603.515	447.19
603.608	442.19
603.7	433.19
603.793	488.19
603.885	430.19
603.978	393.19
604.07	445.19
604.163	413.19
604.255	396.19
604.347	409.19
604.44	395.19
604.532	469.19
604.625	456.19
604.717	412.19
604.81	448.19
604.902	395.19
604.994	419.19
605.087	388.19
605.179	385.19
605.271	463.19
605.364	397.19
605.456	457.19
605.548	449.19
605.641	417.19
605.733	406.19
605.825	412.19
605.918	350.19
606.01	544.19
606.102	874.19
606.194	489.19
606.287	552.19
606.379	393.19
606.471	487.19
606.563	501.19
606.655	476.19
606.748	515.19
606.84	415.19
606.932	507.19
607.024	426.19
607.116	381.19
607.208	370.19
607.301	475.19
607.393	441.19
607.485	412.19
607.577	443.19
607.669	554.19
607.761	455.19
607.853	667.19
607.945	379.19
608.037	350.19
608.129	353.19
608.221	394.19
608.313	374.19
608.405	468.19
608.497	416.19
608.589	434.19
608.681	443.19
608.773	473.19
608.865	458.19
608.957	416.19
609.049	378.19
609.141	553.19
609.233	395.19
609.325	370.19
609.417	395.19
609.509	456.19
609.601	534.19
609.693	501.19
609.784	427.19
609.876	381.19
609.968	427.19
610.06	2526.19
610.152	649.19
610.244	646.19
610.335	498.19
610.427	413.19
610.519	385.19
610.611	455.19
610.702	399.19
610.794	394.19
610.886	490.19
610.978	497.19
611.069	881.19
611.161	465.19
611.253	515.19
611.344	332.19
611.436	303.19
611.528	504.19
611.62	290.19
611.711	359.19
611.803	372.19
611.894	342.19
611.986	321.19
612.078	350.19
612.169	352.19
612.261	311.19
612.352	320.19
612.444	298.19
612.536	420.19
612.627	333.19
612.719	280.19
612.81	256.19
612.902	286.19
612.993	356.19
613.085	300.19
613.176	204.19
613.268	288.19
613.359	322.19
613.451	249.19
613.542	290.19
613.634	312.19
613.725	287.19
613.816	381.19
613.908	285.19
613.999	200.19
614.091	171.19
614.182	194.19
614.273	246.19
614.365	165.19
614.456	165.19
614.547	207.19
614.639	103.19
614.73	161.19
614.821	280.19
614.913	120.19
615.004	109.19
615.095	141.19
615.187	86.19
