Data from 14g_HRC06701__58__241.txt Node

Date: Thu Apr 18 01:58:52 CDT 2024
User: Estudiantes 2
Spectrometer: HR+C0670
Trigger mode: 4
Integration Time (sec): 1.000000E0
Scans to average: 1
Electric dark correction enabled: true
Nonlinearity correction enabled: false
Boxcar width: 0
XAxis mode: Wavelengths
Number of Pixels in Spectrum: 2048
>>>>>Begin Spectral Data<<<<<
407.81	-154.5
407.921	-154.5
408.032	-154.5
408.143	-126.5
408.254	-106.5
408.365	14.5
408.476	253.5
408.587	3.5
408.699	-26.5
408.81	-18.5
408.921	-2.5
409.032	-43.5
409.143	34.5
409.254	42.5
409.365	101.5
409.476	-43.5
409.587	7.5
409.698	64.5
409.809	87.5
409.92	-60.5
410.031	36.5
410.142	62.5
410.253	14.5
410.364	58.5
410.475	646.5
410.585	3345.5
410.696	3648.5
410.807	3543.5
410.918	3495.5
411.029	3611.5
411.14	3665.5
411.251	3629.5
411.362	3664.5
411.472	3714.5
411.583	3621.5
411.694	3750.5
411.805	3803.5
411.916	3734.5
412.026	3749.5
412.137	3755.5
412.248	3725.5
412.359	3670.5
412.47	3609.5
412.58	3610.5
412.691	3665.5
412.802	3610.5
412.912	3646.5
413.023	3604.5
413.134	3579.5
413.245	3721.5
413.355	3596.5
413.466	3584.5
413.577	3641.5
413.687	3721.5
413.798	3503.5
413.909	3693.5
414.019	3660.5
414.13	3598.5
414.24	3605.5
414.351	3739.5
414.462	3838.5
414.572	3668.5
414.683	3716.5
414.793	3580.5
414.904	3970.5
415.014	3698.5
415.125	3584.5
415.235	3642.5
415.346	3827.5
415.456	3750.5
415.567	3676.5
415.677	3496.5
415.788	3706.5
415.898	3519.5
416.009	3551.5
416.119	3671.5
416.23	3659.5
416.34	3524.5
416.45	3717.5
416.561	4522.5
416.671	3653.5
416.782	3499.5
416.892	3585.5
417.002	3590.5
417.113	3733.5
417.223	3706.5
417.333	3647.5
417.444	3693.5
417.554	3870.5
417.664	3822.5
417.775	3637.5
417.885	3933.5
417.995	3772.5
418.106	3992.5
418.216	3836.5
418.326	4051.5
418.436	3943.5
418.547	3988.5
418.657	4065.5
418.767	4176.5
418.877	4130.5
418.987	4110.5
419.098	4104.5
419.208	4118.5
419.318	4180.5
419.428	4146.5
419.538	4027.5
419.648	4184.5
419.759	4192.5
419.869	4088.5
419.979	4151.5
420.089	4149.5
420.199	4028.5
420.309	4146.5
420.419	4140.5
420.529	4108.5
420.639	4664.5
420.749	4251.5
420.859	4250.5
420.969	4304.5
421.079	4484.5
421.189	4249.5
421.299	4189.5
421.409	4288.5
421.519	4412.5
421.629	4440.5
421.739	4327.5
421.849	4417.5
421.959	4261.5
422.069	4407.5
422.179	4473.5
422.289	4517.5
422.399	4533.5
422.509	4640.5
422.619	7229.5
422.729	4758.5
422.838	4533.5
422.948	4628.5
423.058	4694.5
423.168	4704.5
423.278	4864.5
423.388	4790.5
423.498	4918.5
423.607	4929.5
423.717	5174.5
423.827	5142.5
423.937	5032.5
424.046	5073.5
424.156	5113.5
424.266	5018.5
424.376	5348.5
424.485	5150.5
424.595	5071.5
424.705	5164.5
424.815	5158.5
424.924	5725.5
425.034	5186.5
425.144	5131.5
425.253	5293.5
425.363	5395.5
425.473	5388.5
425.582	5180.5
425.692	5344.5
425.801	5341.5
425.911	5486.5
426.021	5533.5
426.13	5697.5
426.24	5689.5
426.349	5604.5
426.459	5617.5
426.568	5539.5
426.678	5644.5
426.787	5737.5
426.897	5557.5
427.006	5643.5
427.116	5838.5
427.225	5714.5
427.335	5865.5
427.444	5724.5
427.554	5860.5
427.663	5833.5
427.773	5913.5
427.882	6080.5
427.992	5958.5
428.101	5959.5
428.21	6011.5
428.32	6133.5
428.429	5995.5
428.539	6264.5
428.648	6191.5
428.757	6102.5
428.867	6240.5
428.976	6441.5
429.085	6234.5
429.195	6352.5
429.304	6304.5
429.413	6257.5
429.523	6426.5
429.632	6368.5
429.741	6412.5
429.85	6375.5
429.96	6593.5
430.069	6528.5
430.178	6459.5
430.287	6751.5
430.397	6587.5
430.506	6628.5
430.615	6641.5
430.724	6783.5
430.833	6609.5
430.943	6668.5
431.052	6720.5
431.161	6778.5
431.27	6924.5
431.379	6901.5
431.488	7276.5
431.597	7073.5
431.706	7112.5
431.816	7186.5
431.925	7069.5
432.034	7000.5
432.143	7114.5
432.252	7128.5
432.361	7088.5
432.47	7121.5
432.579	7046.5
432.688	7008.5
432.797	7176.5
432.906	7030.5
433.015	7089.5
433.124	7459.5
433.233	7244.5
433.342	7180.5
433.451	7084.5
433.56	7264.5
433.669	7140.5
433.778	7135.5
433.886	7228.5
433.995	7310.5
434.104	7445.5
434.213	7371.5
434.322	7458.5
434.431	7628.5
434.54	7804.5
434.649	8092.5
434.757	7893.5
434.866	7720.5
434.975	7779.5
435.084	7597.5
435.193	7486.5
435.301	7697.5
435.41	7603.5
435.519	7546.5
435.628	6962.5
435.737	6894.5
435.845	6847.5
435.954	6754.5
436.063	6882.5
436.171	6893.5
436.28	6850.5
436.389	6956.5
436.498	6613.5
436.606	6772.5
436.715	6787.5
436.823	6561.5
436.932	6442.5
437.041	6498.5
437.149	6492.5
437.258	6376.5
437.367	6286.5
437.475	6364.5
437.584	6623.5
437.692	6246.5
437.801	7798.5
437.91	6276.5
438.018	6061.5
438.127	6163.5
438.235	6277.5
438.344	6241.5
438.452	6142.5
438.561	6080.5
438.669	6085.5
438.778	6063.5
438.886	6164.5
438.995	5976.5
439.103	5990.5
439.212	6116.5
439.32	6130.5
439.428	6033.5
439.537	6045.5
439.645	6328.5
439.754	6241.5
439.862	6034.5
439.97	6192.5
440.079	6184.5
440.187	6055.5
440.295	6254.5
440.404	6198.5
440.512	6308.5
440.62	6399.5
440.729	6392.5
440.837	6485.5
440.945	7128.5
441.054	6685.5
441.162	6462.5
441.27	6720.5
441.378	6813.5
441.487	6781.5
441.595	7181.5
441.703	6920.5
441.811	6687.5
441.92	6598.5
442.028	6498.5
442.136	6597.5
442.244	6512.5
442.352	6558.5
442.461	6362.5
442.569	6415.5
442.677	6412.5
442.785	6525.5
442.893	6320.5
443.001	6481.5
443.109	6413.5
443.217	6444.5
443.325	6413.5
443.434	7147.5
443.542	6841.5
443.65	6615.5
443.758	6825.5
443.866	6680.5
443.974	7188.5
444.082	7079.5
444.19	7109.5
444.298	7127.5
444.406	7342.5
444.514	7517.5
444.622	7404.5
444.73	7609.5
444.838	7405.5
444.946	7332.5
445.054	7089.5
445.161	7105.5
445.269	6798.5
445.377	6893.5
445.485	6849.5
445.593	6809.5
445.701	6891.5
445.809	6602.5
445.917	6705.5
446.025	6606.5
446.132	6803.5
446.24	6752.5
446.348	6624.5
446.456	6606.5
446.564	6652.5
446.671	6559.5
446.779	6504.5
446.887	6560.5
446.995	6548.5
447.102	6628.5
447.21	6518.5
447.318	6531.5
447.426	6398.5
447.533	6776.5
447.641	7701.5
447.749	6558.5
447.856	6497.5
447.964	6553.5
448.072	6568.5
448.179	6398.5
448.287	6533.5
448.395	6548.5
448.502	6366.5
448.61	6521.5
448.718	6600.5
448.825	6587.5
448.933	6571.5
449.04	6611.5
449.148	6669.5
449.256	6615.5
449.363	6769.5
449.471	6716.5
449.578	6886.5
449.686	6799.5
449.793	6933.5
449.901	6767.5
450.008	6956.5
450.116	7111.5
450.223	7084.5
450.331	7206.5
450.438	7307.5
450.546	7256.5
450.653	7292.5
450.76	7438.5
450.868	7390.5
450.975	7602.5
451.083	7443.5
451.19	7504.5
451.297	7366.5
451.405	7533.5
451.512	7716.5
451.619	7613.5
451.727	7750.5
451.834	7674.5
451.941	7624.5
452.049	7610.5
452.156	7690.5
452.263	7681.5
452.371	7849.5
452.478	7851.5
452.585	7937.5
452.692	7805.5
452.8	7828.5
452.907	8166.5
453.014	7848.5
453.121	8006.5
453.229	8054.5
453.336	8029.5
453.443	8118.5
453.55	8145.5
453.657	7942.5
453.765	8232.5
453.872	8195.5
453.979	8264.5
454.086	8303.5
454.193	8218.5
454.3	8182.5
454.407	8435.5
454.514	8485.5
454.621	8403.5
454.729	8271.5
454.836	8272.5
454.943	8547.5
455.05	8398.5
455.157	8588.5
455.264	8386.5
455.371	8679.5
455.478	8556.5
455.585	8908.5
455.692	8792.5
455.799	8964.5
455.906	8851.5
456.013	8781.5
456.12	8820.5
456.227	8745.5
456.334	9000.5
456.44	9084.5
456.547	9138.5
456.654	9035.5
456.761	9092.5
456.868	9092.5
456.975	9231.5
457.082	9093.5
457.189	8934.5
457.296	9073.5
457.402	9174.5
457.509	9192.5
457.616	9405.5
457.723	9833.5
457.83	9448.5
457.936	9492.5
458.043	10091.5
458.15	9661.5
458.257	9956.5
458.363	9940.5
458.47	10110.5
458.577	10261.5
458.684	10273.5
458.79	10612.5
458.897	10646.5
459.004	10847.5
459.11	10805.5
459.217	10889.5
459.324	11101.5
459.43	11327.5
459.537	11488.5
459.644	11444.5
459.75	11479.5
459.857	12023.5
459.964	11757.5
460.07	11783.5
460.177	12207.5
460.283	12029.5
460.39	12266.5
460.496	11984.5
460.603	12135.5
460.71	12055.5
460.816	12130.5
460.923	11995.5
461.029	12154.5
461.136	12224.5
461.242	12184.5
461.349	12045.5
461.455	12111.5
461.562	12371.5
461.668	12387.5
461.774	12291.5
461.881	12503.5
461.987	12557.5
462.094	12669.5
462.2	13024.5
462.307	12926.5
462.413	12765.5
462.519	13230.5
462.626	13764.5
462.732	13573.5
462.838	14174.5
462.945	14554.5
463.051	14528.5
463.157	14481.5
463.264	14011.5
463.37	13792.5
463.476	13514.5
463.583	13393.5
463.689	13144.5
463.795	13257.5
463.901	13290.5
464.008	13470.5
464.114	13325.5
464.22	13089.5
464.326	13255.5
464.433	12752.5
464.539	12765.5
464.645	12290.5
464.751	12455.5
464.857	12026.5
464.963	11672.5
465.07	11483.5
465.176	11007.5
465.282	10788.5
465.388	10689.5
465.494	10414.5
465.6	10195.5
465.706	9892.5
465.812	9902.5
465.918	9751.5
466.024	9692.5
466.131	9583.5
466.237	9444.5
466.343	9265.5
466.449	9161.5
466.555	8888.5
466.661	8799.5
466.767	8864.5
466.873	8624.5
466.979	8891.5
467.085	8627.5
467.191	8653.5
467.296	8649.5
467.402	8591.5
467.508	8534.5
467.614	8637.5
467.72	8403.5
467.826	8315.5
467.932	8151.5
468.038	8174.5
468.144	8073.5
468.25	8007.5
468.355	7961.5
468.461	7991.5
468.567	7896.5
468.673	7911.5
468.779	7862.5
468.885	7833.5
468.99	7856.5
469.096	7915.5
469.202	8063.5
469.308	7855.5
469.413	7962.5
469.519	7943.5
469.625	7980.5
469.731	7978.5
469.836	8001.5
469.942	8178.5
470.048	8028.5
470.153	8130.5
470.259	8028.5
470.365	7955.5
470.47	8120.5
470.576	7827.5
470.682	7790.5
470.787	7815.5
470.893	7717.5
470.999	7742.5
471.104	7625.5
471.21	7523.5
471.315	7347.5
471.421	7321.5
471.527	7573.5
471.632	7331.5
471.738	7205.5
471.843	7134.5
471.949	7071.5
472.054	7120.5
472.16	7124.5
472.265	6945.5
472.371	6804.5
472.476	6926.5
472.582	6971.5
472.687	6765.5
472.793	6741.5
472.898	6842.5
473.003	6729.5
473.109	6652.5
473.214	6657.5
473.32	6604.5
473.425	6622.5
473.53	6638.5
473.636	6534.5
473.741	6566.5
473.847	6516.5
473.952	6561.5
474.057	6644.5
474.163	6616.5
474.268	6583.5
474.373	6550.5
474.478	6355.5
474.584	6494.5
474.689	6367.5
474.794	6541.5
474.9	6918.5
475.005	6448.5
475.11	6712.5
475.215	6518.5
475.321	6526.5
475.426	6745.5
475.531	6633.5
475.636	6613.5
475.741	6471.5
475.846	6777.5
475.952	6925.5
476.057	6681.5
476.162	6759.5
476.267	6975.5
476.372	7123.5
476.477	6670.5
476.582	6810.5
476.687	6773.5
476.793	6851.5
476.898	6864.5
477.003	6989.5
477.108	6867.5
477.213	6921.5
477.318	7003.5
477.423	7164.5
477.528	7239.5
477.633	7299.5
477.738	7330.5
477.843	7297.5
477.948	7400.5
478.053	7473.5
478.158	7391.5
478.263	7501.5
478.368	7565.5
478.473	7695.5
478.578	7688.5
478.682	7731.5
478.787	7809.5
478.892	7731.5
478.997	7829.5
479.102	7769.5
479.207	7666.5
479.312	7925.5
479.417	7879.5
479.521	7962.5
479.626	8086.5
479.731	8113.5
479.836	8063.5
479.941	8245.5
480.045	8357.5
480.15	8309.5
480.255	8422.5
480.36	8493.5
480.465	8356.5
480.569	8680.5
480.674	8351.5
480.779	8237.5
480.883	8177.5
480.988	8119.5
481.093	8150.5
481.197	8009.5
481.302	8248.5
481.407	8167.5
481.511	9961.5
481.616	8268.5
481.721	8232.5
481.825	8253.5
481.93	8050.5
482.035	8121.5
482.139	8281.5
482.244	8153.5
482.348	8322.5
482.453	8321.5
482.557	8332.5
482.662	8344.5
482.767	8350.5
482.871	8292.5
482.976	8400.5
483.08	8548.5
483.185	8800.5
483.289	8484.5
483.394	8625.5
483.498	8816.5
483.603	8655.5
483.707	8854.5
483.811	8785.5
483.916	8940.5
484.02	8862.5
484.125	9160.5
484.229	9182.5
484.333	9253.5
484.438	9192.5
484.542	9195.5
484.647	9316.5
484.751	9356.5
484.855	9488.5
484.96	9429.5
485.064	9640.5
485.168	9734.5
485.273	9598.5
485.377	9684.5
485.481	9994.5
485.585	9856.5
485.69	9828.5
485.794	9981.5
485.898	9964.5
486.002	9954.5
486.107	10083.5
486.211	10068.5
486.315	10095.5
486.419	10145.5
486.524	10227.5
486.628	10077.5
486.732	10091.5
486.836	10048.5
486.94	10210.5
487.044	10174.5
487.148	10176.5
487.253	10041.5
487.357	10174.5
487.461	10239.5
487.565	10230.5
487.669	10161.5
487.773	10133.5
487.877	10231.5
487.981	10184.5
488.085	10153.5
488.189	10245.5
488.293	10322.5
488.397	10601.5
488.501	10373.5
488.605	10197.5
488.709	10166.5
488.813	10274.5
488.917	10227.5
489.021	10185.5
489.125	10498.5
489.229	10205.5
489.333	10499.5
489.437	10238.5
489.541	10528.5
489.645	10208.5
489.749	10334.5
489.853	10470.5
489.956	10401.5
490.06	10448.5
490.164	10462.5
490.268	10340.5
490.372	10305.5
490.476	10497.5
490.579	10509.5
490.683	11047.5
490.787	10373.5
490.891	10349.5
490.995	10356.5
491.098	10292.5
491.202	10339.5
491.306	10356.5
491.41	10384.5
491.513	10348.5
491.617	10413.5
491.721	10601.5
491.824	10551.5
491.928	10402.5
492.032	10656.5
492.136	10449.5
492.239	10439.5
492.343	10322.5
492.446	10814.5
492.55	10458.5
492.654	10208.5
492.757	10370.5
492.861	10465.5
492.965	10383.5
493.068	10407.5
493.172	10357.5
493.275	10372.5
493.379	10373.5
493.482	10602.5
493.586	10653.5
493.689	10754.5
493.793	10511.5
493.896	10777.5
494	10699.5
494.103	10669.5
494.207	10853.5
494.31	10840.5
494.414	10478.5
494.517	10358.5
494.621	10359.5
494.724	10421.5
494.828	10215.5
494.931	10223.5
495.034	10326.5
495.138	10478.5
495.241	10355.5
495.345	11201.5
495.448	10514.5
495.551	10197.5
495.655	10298.5
495.758	10326.5
495.861	10325.5
495.965	10358.5
496.068	10296.5
496.171	10393.5
496.274	10481.5
496.378	10392.5
496.481	10500.5
496.584	10531.5
496.687	10480.5
496.791	10432.5
496.894	10735.5
496.997	10677.5
497.1	10612.5
497.204	10750.5
497.307	10867.5
497.41	10890.5
497.513	11198.5
497.616	11000.5
497.719	11189.5
497.823	11200.5
497.926	11330.5
498.029	11723.5
498.132	11666.5
498.235	12095.5
498.338	12335.5
498.441	12521.5
498.544	12641.5
498.647	12966.5
498.75	13295.5
498.853	13618.5
498.956	13883.5
499.059	14406.5
499.163	14493.5
499.266	14554.5
499.369	14554.5
499.471	14554.5
499.574	14554.5
499.677	14554.5
499.78	14554.5
499.883	14554.5
499.986	14554.5
500.089	14554.5
500.192	14554.5
500.295	14554.5
500.398	14554.5
500.501	14554.5
500.604	14554.5
500.707	14554.5
500.809	14554.5
500.912	14554.5
501.015	14554.5
501.118	14554.5
501.221	14554.5
501.324	14554.5
501.426	14451.5
501.529	13771.5
501.632	13644.5
501.735	13166.5
501.837	12935.5
501.94	12307.5
502.043	12148.5
502.146	11911.5
502.248	11740.5
502.351	11487.5
502.454	11168.5
502.557	11025.5
502.659	10806.5
502.762	10420.5
502.865	10261.5
502.967	10147.5
503.07	9909.5
503.173	9973.5
503.275	9775.5
503.378	9667.5
503.48	9456.5
503.583	9644.5
503.686	9495.5
503.788	9561.5
503.891	9418.5
503.993	9625.5
504.096	9300.5
504.198	9345.5
504.301	9319.5
504.403	9350.5
504.506	9302.5
504.608	9210.5
504.711	8988.5
504.813	8912.5
504.916	8633.5
505.018	8340.5
505.121	8288.5
505.223	8247.5
505.326	8121.5
505.428	8166.5
505.531	7922.5
505.633	7862.5
505.735	7803.5
505.838	7757.5
505.94	7742.5
506.042	7481.5
506.145	7481.5
506.247	7553.5
506.35	7335.5
506.452	7442.5
506.554	7446.5
506.656	7384.5
506.759	7199.5
506.861	7252.5
506.963	7205.5
507.066	7248.5
507.168	7271.5
507.27	7315.5
507.372	7104.5
507.475	7156.5
507.577	7126.5
507.679	7014.5
507.781	6915.5
507.883	6972.5
507.986	6928.5
508.088	6800.5
508.19	6930.5
508.292	6858.5
508.394	6713.5
508.496	6732.5
508.598	6851.5
508.701	6746.5
508.803	6791.5
508.905	6791.5
509.007	6692.5
509.109	6758.5
509.211	6864.5
509.313	6676.5
509.415	6609.5
509.517	6727.5
509.619	6709.5
509.721	6682.5
509.823	6549.5
509.925	6844.5
510.027	6546.5
510.129	6559.5
510.231	6629.5
510.333	6613.5
510.435	6452.5
510.537	6600.5
510.639	6710.5
510.741	6499.5
510.843	6599.5
510.945	6494.5
511.047	6567.5
511.148	6582.5
511.25	6611.5
511.352	6549.5
511.454	6462.5
511.556	6777.5
511.658	6548.5
511.76	6624.5
511.861	6795.5
511.963	6621.5
512.065	6493.5
512.167	6516.5
512.268	6869.5
512.37	6592.5
512.472	6677.5
512.574	6697.5
512.676	6729.5
512.777	6568.5
512.879	6545.5
512.981	6553.5
513.082	6614.5
513.184	6650.5
513.286	7224.5
513.387	6845.5
513.489	6949.5
513.591	6784.5
513.692	6817.5
513.794	6836.5
513.896	6637.5
513.997	6761.5
514.099	6721.5
514.2	6923.5
514.302	6922.5
514.404	6909.5
514.505	6862.5
514.607	7008.5
514.708	6989.5
514.81	7095.5
514.911	7071.5
515.013	7206.5
515.114	7125.5
515.216	7189.5
515.317	7239.5
515.419	7156.5
515.52	7480.5
515.622	7335.5
515.723	7288.5
515.825	7724.5
515.926	7617.5
516.027	7569.5
516.129	7648.5
516.23	7913.5
516.332	7871.5
516.433	8037.5
516.534	8168.5
516.636	8121.5
516.737	8309.5
516.838	9522.5
516.94	8707.5
517.041	8789.5
517.142	9026.5
517.244	9052.5
517.345	9093.5
517.446	9183.5
517.547	9292.5
517.649	9253.5
517.75	9209.5
517.851	9276.5
517.952	9395.5
518.054	9084.5
518.155	9298.5
518.256	8898.5
518.357	8994.5
518.458	8766.5
518.56	8665.5
518.661	8517.5
518.762	8454.5
518.863	8604.5
518.964	8309.5
519.065	8282.5
519.166	8272.5
519.268	8063.5
519.369	8286.5
519.47	8013.5
519.571	8036.5
519.672	7873.5
519.773	8037.5
519.874	8015.5
519.975	7943.5
520.076	7805.5
520.177	7946.5
520.278	7862.5
520.379	7631.5
520.48	7731.5
520.581	7594.5
520.682	7566.5
520.783	7673.5
520.884	7703.5
520.985	7543.5
521.086	7563.5
521.187	7708.5
521.288	7485.5
521.389	7639.5
521.489	7584.5
521.59	7440.5
521.691	7609.5
521.792	7549.5
521.893	7756.5
521.994	7700.5
522.095	7598.5
522.195	7557.5
522.296	7703.5
522.397	7671.5
522.498	7537.5
522.599	7548.5
522.699	7497.5
522.8	7505.5
522.901	7649.5
523.002	7599.5
523.102	7747.5
523.203	7569.5
523.304	7671.5
523.405	7564.5
523.505	7676.5
523.606	7638.5
523.707	7591.5
523.807	7525.5
523.908	7503.5
524.009	7633.5
524.109	7635.5
524.21	7602.5
524.31	7433.5
524.411	7785.5
524.512	7746.5
524.612	7630.5
524.713	7812.5
524.813	7638.5
524.914	7821.5
525.014	11830.5
525.115	7943.5
525.216	7547.5
525.316	7569.5
525.417	7759.5
525.517	7480.5
525.618	7617.5
525.718	7555.5
525.819	7571.5
525.919	7651.5
526.019	7609.5
526.12	7586.5
526.22	7541.5
526.321	7490.5
526.421	7423.5
526.522	7541.5
526.622	7475.5
526.722	7473.5
526.823	7562.5
526.923	7552.5
527.023	7586.5
527.124	7582.5
527.224	7558.5
527.324	7486.5
527.425	7528.5
527.525	7478.5
527.625	7542.5
527.726	7355.5
527.826	7649.5
527.926	7645.5
528.026	7527.5
528.127	7447.5
528.227	7491.5
528.327	7664.5
528.427	7537.5
528.528	7621.5
528.628	7750.5
528.728	7573.5
528.828	7616.5
528.928	7650.5
529.029	7485.5
529.129	7426.5
529.229	7534.5
529.329	7458.5
529.429	7596.5
529.529	7614.5
529.629	7545.5
529.729	7453.5
529.829	7546.5
529.93	7334.5
530.03	7507.5
530.13	7384.5
530.23	7435.5
530.33	7334.5
530.43	7222.5
530.53	7390.5
530.63	7369.5
530.73	7227.5
530.83	7257.5
530.93	7274.5
531.03	7272.5
531.13	7390.5
531.23	7233.5
531.33	7267.5
531.429	7150.5
531.529	7288.5
531.629	7161.5
531.729	7201.5
531.829	7205.5
531.929	7167.5
532.029	7175.5
532.129	7100.5
532.229	7185.5
532.328	7132.5
532.428	6942.5
532.528	7022.5
532.628	6930.5
532.728	7085.5
532.827	7048.5
532.927	7081.5
533.027	6976.5
533.127	7097.5
533.227	7039.5
533.326	7007.5
533.426	6843.5
533.526	7049.5
533.625	7159.5
533.725	7185.5
533.825	6908.5
533.924	6817.5
534.024	6623.5
534.124	6773.5
534.223	6681.5
534.323	7108.5
534.423	6742.5
534.522	6700.5
534.622	6631.5
534.722	6523.5
534.821	6708.5
534.921	6608.5
535.02	6446.5
535.12	6665.5
535.219	6625.5
535.319	6576.5
535.419	6629.5
535.518	6387.5
535.618	6397.5
535.717	6449.5
535.817	6287.5
535.916	6207.5
536.016	6370.5
536.115	6146.5
536.215	6159.5
536.314	6051.5
536.413	6090.5
536.513	6103.5
536.612	6136.5
536.712	6001.5
536.811	6035.5
536.91	5919.5
537.01	6056.5
537.109	6017.5
537.209	5936.5
537.308	5919.5
537.407	6028.5
537.507	5903.5
537.606	5852.5
537.705	6046.5
537.805	5968.5
537.904	5916.5
538.003	5924.5
538.102	6008.5
538.202	5839.5
538.301	5952.5
538.4	5826.5
538.499	5733.5
538.599	5785.5
538.698	6000.5
538.797	5741.5
538.896	5884.5
538.995	5857.5
539.095	5684.5
539.194	5788.5
539.293	5580.5
539.392	5647.5
539.491	5547.5
539.59	5617.5
539.689	5680.5
539.789	5583.5
539.888	5461.5
539.987	5502.5
540.086	5548.5
540.185	5536.5
540.284	5587.5
540.383	5535.5
540.482	5527.5
540.581	5538.5
540.68	5476.5
540.779	5510.5
540.878	5560.5
540.977	5615.5
541.076	5484.5
541.175	5438.5
541.274	5672.5
541.373	5509.5
541.472	5425.5
541.571	5388.5
541.67	6769.5
541.769	5489.5
541.868	5377.5
541.966	5416.5
542.065	5321.5
542.164	5293.5
542.263	5387.5
542.362	5154.5
542.461	5327.5
542.56	5291.5
542.658	5277.5
542.757	5299.5
542.856	5241.5
542.955	5303.5
543.054	5204.5
543.152	5415.5
543.251	5098.5
543.35	5355.5
543.449	5342.5
543.547	5187.5
543.646	5135.5
543.745	5207.5
543.843	5244.5
543.942	5330.5
544.041	5229.5
544.14	5329.5
544.238	5256.5
544.337	5450.5
544.436	5365.5
544.534	5361.5
544.633	5257.5
544.731	5270.5
544.83	5349.5
544.929	5362.5
545.027	5239.5
545.126	5365.5
545.224	5325.5
545.323	5321.5
545.421	5332.5
545.52	5325.5
545.619	5263.5
545.717	5251.5
545.816	5320.5
545.914	5389.5
546.013	5630.5
546.111	5513.5
546.209	5193.5
546.308	5200.5
546.406	5127.5
546.505	5360.5
546.603	5233.5
546.702	5232.5
546.8	5108.5
546.899	5255.5
546.997	5272.5
547.095	5192.5
547.194	5214.5
547.292	5291.5
547.39	5359.5
547.489	5239.5
547.587	5554.5
547.685	5249.5
547.784	5458.5
547.882	5330.5
547.98	5305.5
548.079	5240.5
548.177	5203.5
548.275	5225.5
548.373	5306.5
548.472	5216.5
548.57	5312.5
548.668	5304.5
548.766	5139.5
548.864	5360.5
548.963	5183.5
549.061	5410.5
549.159	5217.5
549.257	5427.5
549.355	5279.5
549.454	5111.5
549.552	5412.5
549.65	5261.5
549.748	5225.5
549.846	5294.5
549.944	5258.5
550.042	5193.5
550.14	5170.5
550.238	5330.5
550.336	5134.5
550.434	5039.5
550.532	5110.5
550.631	5258.5
550.729	5306.5
550.827	5142.5
550.925	5105.5
551.023	5091.5
551.121	5113.5
551.218	5131.5
551.316	5112.5
551.414	5160.5
551.512	5084.5
551.61	5145.5
551.708	5199.5
551.806	5252.5
551.904	5099.5
552.002	5171.5
552.1	5332.5
552.198	5293.5
552.296	5485.5
552.393	5622.5
552.491	5636.5
552.589	5561.5
552.687	5619.5
552.785	5625.5
552.882	5752.5
552.98	5853.5
553.078	5752.5
553.176	5761.5
553.274	5561.5
553.371	5621.5
553.469	5670.5
553.567	5553.5
553.665	5567.5
553.762	5865.5
553.86	5532.5
553.958	5537.5
554.055	5397.5
554.153	5444.5
554.251	5429.5
554.348	5374.5
554.446	5277.5
554.544	5218.5
554.641	5649.5
554.739	5159.5
554.837	5195.5
554.934	5221.5
555.032	5028.5
555.129	4941.5
555.227	5412.5
555.324	10168.5
555.422	5360.5
555.519	5109.5
555.617	5071.5
555.715	4896.5
555.812	5369.5
555.91	4880.5
556.007	4959.5
556.105	4822.5
556.202	4967.5
556.299	4699.5
556.397	4820.5
556.494	4881.5
556.592	4745.5
556.689	4871.5
556.787	4774.5
556.884	4760.5
556.981	4781.5
557.079	4740.5
557.176	4937.5
557.273	4754.5
557.371	4877.5
557.468	4889.5
557.566	4813.5
557.663	4735.5
557.76	4781.5
557.857	4813.5
557.955	4768.5
558.052	4835.5
558.149	4989.5
558.247	4940.5
558.344	4721.5
558.441	4855.5
558.538	4680.5
558.636	4826.5
558.733	4863.5
558.83	4810.5
558.927	4848.5
559.024	4797.5
559.122	4726.5
559.219	4852.5
559.316	4928.5
559.413	4991.5
559.51	4749.5
559.607	4858.5
559.704	5047.5
559.801	4874.5
559.899	4818.5
559.996	5230.5
560.093	4886.5
560.19	4773.5
560.287	4901.5
560.384	5028.5
560.481	4784.5
560.578	4801.5
560.675	4853.5
560.772	4881.5
560.869	4956.5
560.966	5062.5
561.063	4849.5
561.16	5023.5
561.257	5005.5
561.354	4856.5
561.451	4832.5
561.548	5033.5
561.645	5158.5
561.742	4842.5
561.838	4910.5
561.935	4942.5
562.032	4963.5
562.129	5020.5
562.226	5010.5
562.323	4989.5
562.42	5067.5
562.516	5023.5
562.613	4918.5
562.71	4952.5
562.807	5810.5
562.904	5034.5
563	5092.5
563.097	5032.5
563.194	5081.5
563.291	5012.5
563.387	5118.5
563.484	5187.5
563.581	5117.5
563.678	5109.5
563.774	5610.5
563.871	5290.5
563.968	5221.5
564.064	5363.5
564.161	5387.5
564.258	5304.5
564.354	5596.5
564.451	5360.5
564.548	5460.5
564.644	5459.5
564.741	5552.5
564.837	5526.5
564.934	5648.5
565.031	5754.5
565.127	5741.5
565.224	5917.5
565.32	6070.5
565.417	5912.5
565.513	6075.5
565.61	6284.5
565.706	6405.5
565.803	6390.5
565.899	6571.5
565.996	6757.5
566.092	6730.5
566.189	6974.5
566.285	7096.5
566.382	7233.5
566.478	7582.5
566.574	7853.5
566.671	7713.5
566.767	7801.5
566.864	7758.5
566.96	7829.5
567.056	7755.5
567.153	8052.5
567.249	8114.5
567.345	8275.5
567.442	8464.5
567.538	8556.5
567.634	8623.5
567.731	8802.5
567.827	8759.5
567.923	8738.5
568.019	8311.5
568.116	8137.5
568.212	7709.5
568.308	7553.5
568.404	7365.5
568.501	7061.5
568.597	6983.5
568.693	6741.5
568.789	7396.5
568.885	6336.5
568.982	6233.5
569.078	6137.5
569.174	6013.5
569.27	5695.5
569.366	5784.5
569.462	5728.5
569.558	5618.5
569.655	5591.5
569.751	5487.5
569.847	5431.5
569.943	5381.5
570.039	5347.5
570.135	5781.5
570.231	5326.5
570.327	5478.5
570.423	5300.5
570.519	5343.5
570.615	5329.5
570.711	5383.5
570.807	5335.5
570.903	5210.5
570.999	5295.5
571.095	5247.5
571.191	5111.5
571.287	5152.5
571.383	5074.5
571.479	5022.5
571.574	5080.5
571.67	4889.5
571.766	4917.5
571.862	4777.5
571.958	4694.5
572.054	4783.5
572.15	4565.5
572.246	4469.5
572.341	4656.5
572.437	4576.5
572.533	4622.5
572.629	4512.5
572.725	4489.5
572.82	4428.5
572.916	4497.5
573.012	4429.5
573.108	4481.5
573.203	4321.5
573.299	4205.5
573.395	4285.5
573.49	4167.5
573.586	4076.5
573.682	4264.5
573.778	4427.5
573.873	4147.5
573.969	4087.5
574.065	4134.5
574.16	4083.5
574.256	4166.5
574.351	4149.5
574.447	4060.5
574.543	4169.5
574.638	4174.5
574.734	4120.5
574.829	4235.5
574.925	4068.5
575.02	4069.5
575.116	3967.5
575.212	4023.5
575.307	4210.5
575.403	3929.5
575.498	3991.5
575.594	3962.5
575.689	3978.5
575.784	3829.5
575.88	3965.5
575.975	3948.5
576.071	3839.5
576.166	3730.5
576.262	3828.5
576.357	3735.5
576.452	3913.5
576.548	3926.5
576.643	3742.5
576.739	3769.5
576.834	3758.5
576.929	3628.5
577.025	4366.5
577.12	3686.5
577.215	3657.5
577.311	3660.5
577.406	3755.5
577.501	3831.5
577.597	3447.5
577.692	3724.5
577.787	3701.5
577.882	3536.5
577.978	3529.5
578.073	3549.5
578.168	3371.5
578.263	3529.5
578.358	3541.5
578.454	3463.5
578.549	3365.5
578.644	3366.5
578.739	3474.5
578.834	3335.5
578.929	3374.5
579.025	3439.5
579.12	3341.5
579.215	3573.5
579.31	3523.5
579.405	3238.5
579.5	3375.5
579.595	3356.5
579.69	3168.5
579.785	3215.5
579.88	3204.5
579.975	3224.5
580.07	3129.5
580.165	3185.5
580.26	3305.5
580.355	3115.5
580.45	3133.5
580.545	3066.5
580.64	3095.5
580.735	3212.5
580.83	3171.5
580.925	3070.5
581.02	3021.5
581.115	3069.5
581.21	2991.5
581.305	2999.5
581.4	3036.5
581.495	3066.5
581.589	3030.5
581.684	3010.5
581.779	3068.5
581.874	2981.5
581.969	3111.5
582.064	2964.5
582.158	2963.5
582.253	2951.5
582.348	2964.5
582.443	3023.5
582.537	2896.5
582.632	3124.5
582.727	2958.5
582.822	2825.5
582.916	2839.5
583.011	2882.5
583.106	2844.5
583.201	2764.5
583.295	2926.5
583.39	2783.5
583.485	2772.5
583.579	5025.5
583.674	3055.5
583.769	3017.5
583.863	2715.5
583.958	2804.5
584.052	2634.5
584.147	2700.5
584.242	2713.5
584.336	2699.5
584.431	2905.5
584.525	2669.5
584.62	2912.5
584.714	2733.5
584.809	2816.5
584.903	2757.5
584.998	2755.5
585.092	2595.5
585.187	2705.5
585.281	2605.5
585.376	2677.5
585.47	2729.5
585.565	2701.5
585.659	2547.5
585.754	2642.5
585.848	2654.5
585.942	2604.5
586.037	2535.5
586.131	4939.5
586.226	2744.5
586.32	2677.5
586.414	2539.5
586.509	2728.5
586.603	2652.5
586.697	2703.5
586.792	2473.5
586.886	2487.5
586.98	2641.5
587.075	2499.5
587.169	2481.5
587.263	2703.5
587.357	2564.5
587.452	2524.5
587.546	2570.5
587.64	2466.5
587.734	2477.5
587.829	2530.5
587.923	2471.5
588.017	2480.5
588.111	2500.5
588.205	2669.5
588.3	2492.5
588.394	2461.5
588.488	2505.5
588.582	2694.5
588.676	2803.5
588.77	3502.5
588.864	5985.5
588.958	6435.5
589.052	5278.5
589.147	3833.5
589.241	3022.5
589.335	3008.5
589.429	4368.5
589.523	5147.5
589.617	4811.5
589.711	3723.5
589.805	3029.5
589.899	2722.5
589.993	2486.5
590.087	2428.5
590.181	2405.5
590.275	2491.5
590.369	2473.5
590.462	2309.5
590.556	2328.5
590.65	2422.5
590.744	2369.5
590.838	2421.5
590.932	2425.5
591.026	2436.5
591.12	2592.5
591.214	2505.5
591.307	2496.5
591.401	2418.5
591.495	2548.5
591.589	2437.5
591.683	2415.5
591.777	2473.5
591.87	2840.5
591.964	2532.5
592.058	2454.5
592.152	2643.5
592.245	2561.5
592.339	2598.5
592.433	2730.5
592.527	2608.5
592.62	2577.5
592.714	2527.5
592.808	2674.5
592.901	2709.5
592.995	2699.5
593.089	2975.5
593.182	2746.5
593.276	2669.5
593.37	2637.5
593.463	2562.5
593.557	2721.5
593.65	2668.5
593.744	2741.5
593.837	2733.5
593.931	2643.5
594.025	5969.5
594.118	2933.5
594.212	2598.5
594.305	2628.5
594.399	2615.5
594.492	2928.5
594.586	2529.5
594.679	2456.5
594.773	2440.5
594.866	2531.5
594.96	2491.5
595.053	2333.5
595.146	2365.5
595.24	2332.5
595.333	2243.5
595.427	2198.5
595.52	2270.5
595.614	2312.5
595.707	2163.5
595.8	2191.5
595.894	2104.5
595.987	2104.5
596.08	2051.5
596.174	2547.5
596.267	2159.5
596.36	2181.5
596.454	2175.5
596.547	2110.5
596.64	1948.5
596.733	2016.5
596.827	2072.5
596.92	2003.5
597.013	1948.5
597.106	1881.5
597.2	1862.5
597.293	1880.5
597.386	2176.5
597.479	2001.5
597.572	1918.5
597.666	1870.5
597.759	1832.5
597.852	1921.5
597.945	1864.5
598.038	1789.5
598.131	1861.5
598.224	1836.5
598.317	1928.5
598.411	1814.5
598.504	1871.5
598.597	1902.5
598.69	1779.5
598.783	1816.5
598.876	1854.5
598.969	1887.5
599.062	1763.5
599.155	1898.5
599.248	1800.5
599.341	1816.5
599.434	1814.5
599.527	1805.5
599.62	1828.5
599.713	1791.5
599.806	1873.5
599.899	1971.5
599.991	1746.5
600.084	2068.5
600.177	1773.5
600.27	1716.5
600.363	1966.5
600.456	1665.5
600.549	1780.5
600.642	1686.5
600.734	1745.5
600.827	1731.5
600.92	1871.5
601.013	1778.5
601.106	1782.5
601.199	1724.5
601.291	1780.5
601.384	1708.5
601.477	1942.5
601.57	1897.5
601.662	1651.5
601.755	1702.5
601.848	1765.5
601.94	1669.5
602.033	1805.5
602.126	1765.5
602.219	1653.5
602.311	1800.5
602.404	1671.5
602.497	1725.5
602.589	1639.5
602.682	1718.5
602.774	1727.5
602.867	1705.5
602.96	1687.5
603.052	1745.5
603.145	1618.5
603.237	1686.5
603.33	1688.5
603.422	1758.5
603.515	1628.5
603.608	1708.5
603.7	1697.5
603.793	1637.5
603.885	1646.5
603.978	1695.5
604.07	1617.5
604.163	1593.5
604.255	1710.5
604.347	1590.5
604.44	1608.5
604.532	1641.5
604.625	1593.5
604.717	1568.5
604.81	1732.5
604.902	1674.5
604.994	1568.5
605.087	1638.5
605.179	1662.5
605.271	1631.5
605.364	1631.5
605.456	1719.5
605.548	1582.5
605.641	1657.5
605.733	1645.5
605.825	1681.5
605.918	1571.5
606.01	1753.5
606.102	2174.5
606.194	1633.5
606.287	1704.5
606.379	1587.5
606.471	1582.5
606.563	1687.5
606.655	1660.5
606.748	1648.5
606.84	1599.5
606.932	1650.5
607.024	1549.5
607.116	1533.5
607.208	1552.5
607.301	1680.5
607.393	1576.5
607.485	1540.5
607.577	1645.5
607.669	1645.5
607.761	1642.5
607.853	1906.5
607.945	1489.5
608.037	1468.5
608.129	1619.5
608.221	1520.5
608.313	1500.5
608.405	1606.5
608.497	1585.5
608.589	1535.5
608.681	1628.5
608.773	1673.5
608.865	1596.5
608.957	1601.5
609.049	1625.5
609.141	1642.5
609.233	1491.5
609.325	1534.5
609.417	1526.5
609.509	1647.5
609.601	1678.5
609.693	1714.5
609.784	1505.5
609.876	1523.5
609.968	1576.5
610.06	3660.5
610.152	1710.5
610.244	1844.5
610.335	1520.5
610.427	1527.5
610.519	1537.5
610.611	1518.5
610.702	1455.5
610.794	1511.5
610.886	1595.5
610.978	1493.5
611.069	1951.5
611.161	1477.5
611.253	1487.5
611.344	1406.5
611.436	1380.5
611.528	1382.5
611.62	1246.5
611.711	1347.5
611.803	1251.5
611.894	1202.5
611.986	1297.5
612.078	1363.5
612.169	1298.5
612.261	1241.5
612.352	1257.5
612.444	1159.5
612.536	1241.5
612.627	1226.5
612.719	1059.5
612.81	1056.5
612.902	1120.5
612.993	1131.5
613.085	1089.5
613.176	1004.5
613.268	1058.5
613.359	1026.5
613.451	1053.5
613.542	1040.5
613.634	947.5
613.725	1069.5
613.816	1118.5
613.908	914.5
613.999	877.5
614.091	864.5
614.182	772.5
614.273	902.5
614.365	832.5
614.456	773.5
614.547	809.5
614.639	784.5
614.73	782.5
614.821	801.5
614.913	696.5
615.004	663.5
615.095	612.5
615.187	626.5
