Data from 14g_HRC06701__38__221.txt Node

Date: Thu Apr 18 01:58:32 CDT 2024
User: Estudiantes 2
Spectrometer: HR+C0670
Trigger mode: 4
Integration Time (sec): 1.000000E0
Scans to average: 1
Electric dark correction enabled: true
Nonlinearity correction enabled: false
Boxcar width: 0
XAxis mode: Wavelengths
Number of Pixels in Spectrum: 2048
>>>>>Begin Spectral Data<<<<<
407.81	-123.44
407.921	-123.44
408.032	-123.44
408.143	-111.44
408.254	-146.44
408.365	2.56
408.476	237.56
408.587	-8.44
408.699	-5.44
408.81	-25.44
408.921	-13.44
409.032	-53.44
409.143	56.56
409.254	84.56
409.365	46.56
409.476	-33.44
409.587	25.56
409.698	67.56
409.809	69.56
409.92	2.56
410.031	5.56
410.142	18.56
410.253	-6.44
410.364	66.56
410.475	802.56
410.585	3989.56
410.696	4400.56
410.807	4231.56
410.918	4207.56
411.029	4344.56
411.14	4358.56
411.251	4366.56
411.362	4414.56
411.472	4496.56
411.583	4312.56
411.694	4460.56
411.805	4501.56
411.916	4495.56
412.026	4514.56
412.137	4474.56
412.248	4442.56
412.359	4447.56
412.47	4372.56
412.58	4253.56
412.691	4347.56
412.802	4344.56
412.912	4405.56
413.023	4371.56
413.134	4287.56
413.245	4390.56
413.355	4388.56
413.466	4317.56
413.577	4396.56
413.687	4389.56
413.798	4113.56
413.909	4356.56
414.019	4346.56
414.13	4346.56
414.24	4331.56
414.351	4541.56
414.462	4588.56
414.572	4404.56
414.683	4449.56
414.793	4403.56
414.904	4701.56
415.014	4405.56
415.125	4245.56
415.235	4378.56
415.346	4599.56
415.456	4459.56
415.567	4306.56
415.677	4412.56
415.788	4411.56
415.898	4245.56
416.009	4315.56
416.119	4366.56
416.23	4308.56
416.34	4207.56
416.45	4354.56
416.561	5232.56
416.671	4476.56
416.782	4418.56
416.892	4428.56
417.002	4369.56
417.113	4493.56
417.223	4461.56
417.333	4401.56
417.444	4484.56
417.554	4594.56
417.664	4534.56
417.775	4417.56
417.885	4624.56
417.995	4576.56
418.106	4846.56
418.216	4688.56
418.326	4726.56
418.436	4828.56
418.547	4779.56
418.657	4719.56
418.767	4880.56
418.877	4878.56
418.987	5019.56
419.098	4941.56
419.208	5022.56
419.318	5042.56
419.428	5078.56
419.538	4924.56
419.648	5097.56
419.759	5013.56
419.869	4981.56
419.979	4947.56
420.089	4998.56
420.199	4837.56
420.309	4935.56
420.419	5028.56
420.529	5023.56
420.639	5449.56
420.749	5075.56
420.859	5057.56
420.969	5161.56
421.079	5353.56
421.189	5061.56
421.299	5000.56
421.409	5131.56
421.519	5234.56
421.629	5287.56
421.739	5162.56
421.849	5210.56
421.959	5281.56
422.069	5346.56
422.179	5397.56
422.289	5408.56
422.399	5455.56
422.509	5678.56
422.619	8864.56
422.729	5890.56
422.838	5555.56
422.948	5635.56
423.058	5730.56
423.168	5701.56
423.278	5797.56
423.388	5835.56
423.498	5963.56
423.607	5958.56
423.717	6257.56
423.827	6263.56
423.937	6109.56
424.046	6105.56
424.156	6137.56
424.266	6085.56
424.376	6447.56
424.485	6387.56
424.595	6205.56
424.705	6302.56
424.815	6242.56
424.924	6777.56
425.034	6244.56
425.144	6315.56
425.253	6223.56
425.363	6494.56
425.473	6454.56
425.582	6326.56
425.692	6546.56
425.801	6435.56
425.911	6602.56
426.021	6568.56
426.13	6724.56
426.24	6799.56
426.349	6708.56
426.459	6805.56
426.568	6640.56
426.678	6846.56
426.787	6833.56
426.897	6868.56
427.006	6909.56
427.116	6973.56
427.225	7019.56
427.335	7111.56
427.444	7029.56
427.554	6947.56
427.663	7100.56
427.773	7088.56
427.882	7138.56
427.992	7180.56
428.101	7315.56
428.21	7319.56
428.32	7364.56
428.429	7266.56
428.539	7625.56
428.648	7337.56
428.757	7382.56
428.867	7522.56
428.976	7669.56
429.085	7527.56
429.195	7472.56
429.304	7665.56
429.413	7584.56
429.523	7683.56
429.632	7620.56
429.741	7680.56
429.85	7577.56
429.96	7878.56
430.069	7760.56
430.178	7827.56
430.287	8135.56
430.397	7976.56
430.506	7934.56
430.615	7926.56
430.724	8098.56
430.833	7966.56
430.943	8102.56
431.052	8129.56
431.161	8095.56
431.27	8225.56
431.379	8264.56
431.488	8556.56
431.597	8488.56
431.706	8638.56
431.816	8644.56
431.925	8431.56
432.034	8408.56
432.143	8527.56
432.252	8416.56
432.361	8577.56
432.47	8565.56
432.579	8466.56
432.688	8472.56
432.797	8602.56
432.906	8399.56
433.015	8552.56
433.124	8876.56
433.233	8486.56
433.342	8579.56
433.451	8728.56
433.56	8609.56
433.669	8726.56
433.778	8557.56
433.886	8760.56
433.995	8660.56
434.104	9011.56
434.213	8855.56
434.322	8970.56
434.431	9143.56
434.54	9298.56
434.649	9613.56
434.757	9517.56
434.866	9247.56
434.975	9363.56
435.084	9122.56
435.193	9025.56
435.301	9145.56
435.41	8991.56
435.519	8933.56
435.628	8388.56
435.737	8243.56
435.845	8194.56
435.954	8148.56
436.063	8173.56
436.171	8085.56
436.28	8092.56
436.389	8229.56
436.498	7902.56
436.606	8096.56
436.715	8268.56
436.823	7908.56
436.932	7830.56
437.041	7697.56
437.149	7844.56
437.258	7519.56
437.367	7462.56
437.475	7574.56
437.584	7768.56
437.692	7471.56
437.801	9121.56
437.91	7516.56
438.018	7427.56
438.127	7500.56
438.235	7378.56
438.344	7442.56
438.452	7445.56
438.561	7304.56
438.669	7488.56
438.778	7286.56
438.886	7430.56
438.995	7213.56
439.103	7260.56
439.212	7353.56
439.32	7405.56
439.428	7244.56
439.537	7346.56
439.645	7547.56
439.754	7349.56
439.862	7209.56
439.97	7372.56
440.079	7452.56
440.187	7416.56
440.295	7566.56
440.404	7557.56
440.512	7372.56
440.62	7564.56
440.729	7637.56
440.837	7652.56
440.945	8588.56
441.054	7843.56
441.162	7855.56
441.27	8195.56
441.378	8177.56
441.487	8173.56
441.595	8604.56
441.703	8336.56
441.811	8028.56
441.92	7982.56
442.028	7863.56
442.136	7937.56
442.244	7824.56
442.352	7911.56
442.461	7672.56
442.569	7751.56
442.677	7865.56
442.785	7894.56
442.893	7670.56
443.001	7696.56
443.109	7761.56
443.217	7783.56
443.325	7701.56
443.434	8403.56
443.542	8245.56
443.65	7864.56
443.758	8049.56
443.866	8048.56
443.974	8503.56
444.082	8449.56
444.19	8640.56
444.298	8533.56
444.406	8873.56
444.514	9061.56
444.622	9071.56
444.73	9204.56
444.838	9052.56
444.946	8828.56
445.054	8474.56
445.161	8626.56
445.269	8235.56
445.377	8399.56
445.485	8246.56
445.593	8068.56
445.701	8142.56
445.809	7988.56
445.917	7902.56
446.025	7865.56
446.132	8028.56
446.24	8014.56
446.348	7975.56
446.456	7783.56
446.564	7941.56
446.671	7814.56
446.779	7746.56
446.887	7797.56
446.995	7680.56
447.102	7791.56
447.21	7912.56
447.318	7773.56
447.426	7774.56
447.533	8049.56
447.641	9021.56
447.749	7788.56
447.856	7846.56
447.964	7769.56
448.072	7845.56
448.179	7660.56
448.287	7779.56
448.395	7881.56
448.502	7677.56
448.61	7886.56
448.718	7846.56
448.825	7926.56
448.933	7882.56
449.04	7875.56
449.148	7939.56
449.256	8016.56
449.363	8075.56
449.471	8031.56
449.578	8134.56
449.686	8133.56
449.793	8229.56
449.901	8243.56
450.008	8422.56
450.116	8242.56
450.223	8400.56
450.331	8575.56
450.438	8663.56
450.546	8753.56
450.653	8812.56
450.76	9054.56
450.868	8913.56
450.975	9030.56
451.083	9033.56
451.19	9018.56
451.297	8803.56
451.405	8982.56
451.512	9037.56
451.619	9149.56
451.727	9222.56
451.834	9099.56
451.941	9090.56
452.049	9098.56
452.156	9251.56
452.263	9345.56
452.371	9302.56
452.478	9447.56
452.585	9525.56
452.692	9336.56
452.8	9458.56
452.907	9702.56
453.014	9457.56
453.121	9505.56
453.229	9598.56
453.336	9649.56
453.443	9671.56
453.55	9792.56
453.657	9534.56
453.765	9852.56
453.872	9738.56
453.979	9932.56
454.086	9914.56
454.193	9846.56
454.3	9743.56
454.407	9880.56
454.514	10173.56
454.621	9811.56
454.729	9896.56
454.836	9953.56
454.943	10170.56
455.05	9986.56
455.157	10323.56
455.264	10123.56
455.371	10181.56
455.478	10151.56
455.585	10656.56
455.692	10358.56
455.799	10528.56
455.906	10460.56
456.013	10364.56
456.12	10455.56
456.227	10475.56
456.334	10574.56
456.44	10679.56
456.547	10590.56
456.654	10512.56
456.761	10828.56
456.868	10953.56
456.975	10878.56
457.082	10693.56
457.189	10610.56
457.296	10912.56
457.402	10964.56
457.509	10952.56
457.616	11179.56
457.723	11545.56
457.83	11313.56
457.936	11267.56
458.043	11785.56
458.15	11348.56
458.257	11629.56
458.363	11914.56
458.47	11976.56
458.577	12144.56
458.684	12292.56
458.79	12642.56
458.897	12533.56
459.004	12988.56
459.11	12819.56
459.217	12848.56
459.324	13049.56
459.43	13441.56
459.537	13405.56
459.644	13536.56
459.75	13669.56
459.857	14078.56
459.964	14016.56
460.07	13976.56
460.177	14359.56
460.283	14278.56
460.39	14474.56
460.496	14382.56
460.603	14291.56
460.71	14176.56
460.816	14230.56
460.923	14233.56
461.029	14284.56
461.136	14441.56
461.242	14159.56
461.349	14232.56
461.455	14192.56
461.562	14471.56
461.668	14492.56
461.774	14395.56
461.881	14554.56
461.987	14554.56
462.094	14554.56
462.2	14554.56
462.307	14554.56
462.413	14554.56
462.519	14554.56
462.626	14554.56
462.732	14554.56
462.838	14554.56
462.945	14554.56
463.051	14554.56
463.157	14554.56
463.264	14554.56
463.37	14554.56
463.476	14554.56
463.583	14554.56
463.689	14554.56
463.795	14554.56
463.901	14554.56
464.008	14554.56
464.114	14554.56
464.22	14554.56
464.326	14554.56
464.433	14554.56
464.539	14554.56
464.645	14554.56
464.751	14553.56
464.857	14289.56
464.963	13709.56
465.07	13464.56
465.176	12932.56
465.282	12754.56
465.388	12524.56
465.494	12211.56
465.6	11982.56
465.706	11762.56
465.812	11661.56
465.918	11699.56
466.024	11426.56
466.131	11293.56
466.237	10997.56
466.343	10826.56
466.449	10892.56
466.555	10614.56
466.661	10411.56
466.767	10479.56
466.873	10307.56
466.979	10439.56
467.085	10259.56
467.191	10357.56
467.296	10270.56
467.402	10132.56
467.508	10026.56
467.614	10149.56
467.72	9824.56
467.826	9654.56
467.932	9663.56
468.038	9568.56
468.144	9438.56
468.25	9366.56
468.355	9348.56
468.461	9404.56
468.567	9231.56
468.673	9250.56
468.779	9169.56
468.885	9151.56
468.99	9169.56
469.096	9283.56
469.202	9408.56
469.308	9342.56
469.413	9426.56
469.519	9485.56
469.625	9358.56
469.731	9500.56
469.836	9512.56
469.942	9780.56
470.048	9519.56
470.153	9582.56
470.259	9558.56
470.365	9544.56
470.47	9653.56
470.576	9380.56
470.682	9319.56
470.787	9328.56
470.893	9111.56
470.999	9168.56
471.104	8957.56
471.21	8797.56
471.315	8667.56
471.421	8742.56
471.527	8861.56
471.632	8525.56
471.738	8573.56
471.843	8433.56
471.949	8457.56
472.054	8337.56
472.16	8289.56
472.265	8156.56
472.371	8095.56
472.476	8074.56
472.582	8181.56
472.687	7895.56
472.793	7940.56
472.898	7923.56
473.003	7949.56
473.109	7948.56
473.214	7818.56
473.32	7874.56
473.425	7828.56
473.53	7774.56
473.636	7753.56
473.741	7903.56
473.847	7704.56
473.952	7791.56
474.057	7699.56
474.163	7750.56
474.268	7704.56
474.373	7766.56
474.478	7673.56
474.584	7718.56
474.689	7762.56
474.794	7808.56
474.9	8086.56
475.005	7731.56
475.11	7943.56
475.215	7569.56
475.321	7699.56
475.426	7962.56
475.531	7870.56
475.636	7766.56
475.741	7689.56
475.846	8018.56
475.952	8097.56
476.057	7876.56
476.162	7889.56
476.267	8164.56
476.372	8197.56
476.477	7895.56
476.582	8040.56
476.687	8017.56
476.793	8016.56
476.898	8104.56
477.003	8286.56
477.108	8170.56
477.213	8088.56
477.318	8311.56
477.423	8381.56
477.528	8426.56
477.633	8697.56
477.738	8605.56
477.843	8657.56
477.948	8767.56
478.053	8726.56
478.158	8663.56
478.263	9005.56
478.368	8914.56
478.473	9112.56
478.578	9150.56
478.682	9025.56
478.787	9217.56
478.892	9184.56
478.997	9327.56
479.102	9279.56
479.207	9169.56
479.312	9379.56
479.417	9197.56
479.521	9427.56
479.626	9551.56
479.731	9533.56
479.836	9594.56
479.941	9837.56
480.045	10030.56
480.15	9975.56
480.255	9981.56
480.36	9938.56
480.465	10045.56
480.569	10095.56
480.674	9891.56
480.779	9717.56
480.883	9684.56
480.988	9788.56
481.093	9644.56
481.197	9572.56
481.302	9613.56
481.407	9707.56
481.511	10972.56
481.616	9617.56
481.721	9650.56
481.825	9784.56
481.93	9520.56
482.035	9774.56
482.139	9740.56
482.244	9708.56
482.348	9734.56
482.453	9848.56
482.557	9926.56
482.662	9812.56
482.767	9840.56
482.871	9956.56
482.976	10073.56
483.08	10066.56
483.185	10226.56
483.289	10228.56
483.394	10232.56
483.498	10314.56
483.603	10265.56
483.707	10659.56
483.811	10597.56
483.916	10673.56
484.02	10494.56
484.125	10780.56
484.229	10697.56
484.333	11024.56
484.438	10792.56
484.542	11047.56
484.647	11087.56
484.751	11224.56
484.855	11086.56
484.96	11198.56
485.064	11499.56
485.168	11577.56
485.273	11524.56
485.377	11648.56
485.481	11866.56
485.585	11522.56
485.69	11699.56
485.794	11846.56
485.898	11856.56
486.002	11599.56
486.107	11912.56
486.211	11786.56
486.315	11864.56
486.419	11999.56
486.524	11820.56
486.628	11949.56
486.732	12027.56
486.836	11904.56
486.94	12099.56
487.044	11965.56
487.148	11916.56
487.253	11968.56
487.357	12056.56
487.461	12251.56
487.565	12001.56
487.669	11964.56
487.773	12022.56
487.877	12060.56
487.981	11952.56
488.085	12001.56
488.189	12063.56
488.293	12099.56
488.397	12503.56
488.501	11983.56
488.605	11981.56
488.709	12065.56
488.813	12034.56
488.917	11936.56
489.021	12037.56
489.125	12229.56
489.229	11998.56
489.333	12304.56
489.437	12221.56
489.541	12220.56
489.645	12075.56
489.749	12183.56
489.853	12186.56
489.956	12180.56
490.06	12133.56
490.164	12096.56
490.268	11941.56
490.372	12211.56
490.476	12226.56
490.579	12094.56
490.683	12767.56
490.787	12199.56
490.891	12051.56
490.995	12054.56
491.098	12183.56
491.202	12163.56
491.306	12105.56
491.41	12169.56
491.513	12065.56
491.617	12017.56
491.721	12310.56
491.824	12426.56
491.928	12180.56
492.032	12341.56
492.136	12268.56
492.239	12195.56
492.343	12064.56
492.446	12711.56
492.55	12139.56
492.654	11928.56
492.757	12120.56
492.861	12219.56
492.965	11955.56
493.068	12168.56
493.172	12167.56
493.275	12039.56
493.379	12127.56
493.482	12083.56
493.586	12340.56
493.689	12327.56
493.793	12253.56
493.896	12204.56
494	12198.56
494.103	12280.56
494.207	12493.56
494.31	12540.56
494.414	12172.56
494.517	12211.56
494.621	12039.56
494.724	12079.56
494.828	12072.56
494.931	11923.56
495.034	12037.56
495.138	12102.56
495.241	11884.56
495.345	12678.56
495.448	12034.56
495.551	11887.56
495.655	11759.56
495.758	11846.56
495.861	11745.56
495.965	11884.56
496.068	11930.56
496.171	11858.56
496.274	11996.56
496.378	11861.56
496.481	11895.56
496.584	12008.56
496.687	12025.56
496.791	12118.56
496.894	12158.56
496.997	12209.56
497.1	12151.56
497.204	12379.56
497.307	12191.56
497.41	12624.56
497.513	12750.56
497.616	12650.56
497.719	12553.56
497.823	12916.56
497.926	13063.56
498.029	13082.56
498.132	13481.56
498.235	13769.56
498.338	13997.56
498.441	14164.56
498.544	14335.56
498.647	14554.56
498.75	14554.56
498.853	14554.56
498.956	14554.56
499.059	14554.56
499.163	14554.56
499.266	14554.56
499.369	14554.56
499.471	14554.56
499.574	14554.56
499.677	14554.56
499.78	14554.56
499.883	14554.56
499.986	14554.56
500.089	14554.56
500.192	14554.56
500.295	14554.56
500.398	14554.56
500.501	14554.56
500.604	14554.56
500.707	14554.56
500.809	14554.56
500.912	14554.56
501.015	14554.56
501.118	14554.56
501.221	14554.56
501.324	14554.56
501.426	14554.56
501.529	14554.56
501.632	14554.56
501.735	14554.56
501.837	14554.56
501.94	13980.56
502.043	13715.56
502.146	13448.56
502.248	13189.56
502.351	12978.56
502.454	12655.56
502.557	12488.56
502.659	12133.56
502.762	11849.56
502.865	11634.56
502.967	11469.56
503.07	11221.56
503.173	11164.56
503.275	10951.56
503.378	10844.56
503.48	10743.56
503.583	10921.56
503.686	10734.56
503.788	10883.56
503.891	10705.56
503.993	10632.56
504.096	10564.56
504.198	10705.56
504.301	10616.56
504.403	10640.56
504.506	10482.56
504.608	10361.56
504.711	10224.56
504.813	10049.56
504.916	9877.56
505.018	9583.56
505.121	9300.56
505.223	9324.56
505.326	9218.56
505.428	9213.56
505.531	9057.56
505.633	8916.56
505.735	8722.56
505.838	8701.56
505.94	8684.56
506.042	8356.56
506.145	8306.56
506.247	8535.56
506.35	8408.56
506.452	8469.56
506.554	8520.56
506.656	8262.56
506.759	8292.56
506.861	8295.56
506.963	8159.56
507.066	8063.56
507.168	8167.56
507.27	8109.56
507.372	7917.56
507.475	7984.56
507.577	8104.56
507.679	7922.56
507.781	7794.56
507.883	7842.56
507.986	7650.56
508.088	7767.56
508.19	7756.56
508.292	7756.56
508.394	7669.56
508.496	7676.56
508.598	7774.56
508.701	7804.56
508.803	7697.56
508.905	7569.56
509.007	7664.56
509.109	7612.56
509.211	7664.56
509.313	7592.56
509.415	7525.56
509.517	7481.56
509.619	7424.56
509.721	7461.56
509.823	7426.56
509.925	7561.56
510.027	7335.56
510.129	7378.56
510.231	7516.56
510.333	7246.56
510.435	7434.56
510.537	7491.56
510.639	7348.56
510.741	7330.56
510.843	7456.56
510.945	7334.56
511.047	7435.56
511.148	7390.56
511.25	7449.56
511.352	7373.56
511.454	7256.56
511.556	7587.56
511.658	7391.56
511.76	7539.56
511.861	7635.56
511.963	7337.56
512.065	7350.56
512.167	7396.56
512.268	7653.56
512.37	7481.56
512.472	7445.56
512.574	7548.56
512.676	7516.56
512.777	7333.56
512.879	7526.56
512.981	7467.56
513.082	7446.56
513.184	7530.56
513.286	7946.56
513.387	7600.56
513.489	7649.56
513.591	7616.56
513.692	7616.56
513.794	7816.56
513.896	7608.56
513.997	7562.56
514.099	7600.56
514.2	7717.56
514.302	7722.56
514.404	7681.56
514.505	7925.56
514.607	7843.56
514.708	7728.56
514.81	7926.56
514.911	7982.56
515.013	7919.56
515.114	8085.56
515.216	7983.56
515.317	8061.56
515.419	7976.56
515.52	8406.56
515.622	8223.56
515.723	8267.56
515.825	8638.56
515.926	8476.56
516.027	8481.56
516.129	8679.56
516.23	8785.56
516.332	8872.56
516.433	8979.56
516.534	9158.56
516.636	9221.56
516.737	9297.56
516.838	10633.56
516.94	9888.56
517.041	9799.56
517.142	10325.56
517.244	10317.56
517.345	10219.56
517.446	10476.56
517.547	10541.56
517.649	10377.56
517.75	10488.56
517.851	10520.56
517.952	10679.56
518.054	10436.56
518.155	10498.56
518.256	10002.56
518.357	10095.56
518.458	9747.56
518.56	9559.56
518.661	9608.56
518.762	9534.56
518.863	9566.56
518.964	9321.56
519.065	9104.56
519.166	9214.56
519.268	8963.56
519.369	9255.56
519.47	9040.56
519.571	8878.56
519.672	8804.56
519.773	8855.56
519.874	8785.56
519.975	8828.56
520.076	8948.56
520.177	8749.56
520.278	8786.56
520.379	8761.56
520.48	8569.56
520.581	8455.56
520.682	8664.56
520.783	8630.56
520.884	8689.56
520.985	8513.56
521.086	8519.56
521.187	8455.56
521.288	8424.56
521.389	8481.56
521.489	8419.56
521.59	8293.56
521.691	8493.56
521.792	8441.56
521.893	8486.56
521.994	8486.56
522.095	8407.56
522.195	8384.56
522.296	8492.56
522.397	8576.56
522.498	8461.56
522.599	8289.56
522.699	8397.56
522.8	8385.56
522.901	8533.56
523.002	8328.56
523.102	8656.56
523.203	8419.56
523.304	8563.56
523.405	8370.56
523.505	8519.56
523.606	8467.56
523.707	8535.56
523.807	8429.56
523.908	8537.56
524.009	8540.56
524.109	8540.56
524.21	8450.56
524.31	8600.56
524.411	8652.56
524.512	8674.56
524.612	8525.56
524.713	8703.56
524.813	8504.56
524.914	8700.56
525.014	12990.56
525.115	8732.56
525.216	8508.56
525.316	8530.56
525.417	8576.56
525.517	8354.56
525.618	8531.56
525.718	8392.56
525.819	8373.56
525.919	8546.56
526.019	8369.56
526.12	8482.56
526.22	8172.56
526.321	8386.56
526.421	8242.56
526.522	8341.56
526.622	8302.56
526.722	8274.56
526.823	8252.56
526.923	8450.56
527.023	8398.56
527.124	8182.56
527.224	8418.56
527.324	8309.56
527.425	8309.56
527.525	8287.56
527.625	8416.56
527.726	8276.56
527.826	8446.56
527.926	8428.56
528.026	8319.56
528.127	8260.56
528.227	8371.56
528.327	8537.56
528.427	8291.56
528.528	8417.56
528.628	8420.56
528.728	8330.56
528.828	8378.56
528.928	8469.56
529.029	8301.56
529.129	8253.56
529.229	8422.56
529.329	8207.56
529.429	8374.56
529.529	8336.56
529.629	8395.56
529.729	8201.56
529.829	8336.56
529.93	8133.56
530.03	8213.56
530.13	8143.56
530.23	8104.56
530.33	8181.56
530.43	8057.56
530.53	8203.56
530.63	7972.56
530.73	7877.56
530.83	7956.56
530.93	8010.56
531.03	7877.56
531.13	8094.56
531.23	7929.56
531.33	7905.56
531.429	8128.56
531.529	8020.56
531.629	7888.56
531.729	7758.56
531.829	7965.56
531.929	7983.56
532.029	7864.56
532.129	7749.56
532.229	7885.56
532.328	7756.56
532.428	7873.56
532.528	7737.56
532.628	7697.56
532.728	7686.56
532.827	7660.56
532.927	7753.56
533.027	7743.56
533.127	7845.56
533.227	7706.56
533.326	7711.56
533.426	7621.56
533.526	7770.56
533.625	7648.56
533.725	7896.56
533.825	7616.56
533.924	7364.56
534.024	7211.56
534.124	7429.56
534.223	7526.56
534.323	7767.56
534.423	7338.56
534.522	7416.56
534.622	7233.56
534.722	7208.56
534.821	7262.56
534.921	7217.56
535.02	7127.56
535.12	7238.56
535.219	7330.56
535.319	7299.56
535.419	7207.56
535.518	7074.56
535.618	7049.56
535.717	7152.56
535.817	6911.56
535.916	6765.56
536.016	6847.56
536.115	6810.56
536.215	6702.56
536.314	6691.56
536.413	6631.56
536.513	6665.56
536.612	6574.56
536.712	6537.56
536.811	6542.56
536.91	6504.56
537.01	6465.56
537.109	6583.56
537.209	6519.56
537.308	6518.56
537.407	6459.56
537.507	6435.56
537.606	6454.56
537.705	6471.56
537.805	6350.56
537.904	6403.56
538.003	6418.56
538.102	6454.56
538.202	6440.56
538.301	6506.56
538.4	6428.56
538.499	6244.56
538.599	6386.56
538.698	6585.56
538.797	6361.56
538.896	6444.56
538.995	6301.56
539.095	6266.56
539.194	6434.56
539.293	6241.56
539.392	6182.56
539.491	6135.56
539.59	6215.56
539.689	6241.56
539.789	5981.56
539.888	5966.56
539.987	5921.56
540.086	5877.56
540.185	6032.56
540.284	6114.56
540.383	5998.56
540.482	6005.56
540.581	6080.56
540.68	5955.56
540.779	6014.56
540.878	6086.56
540.977	6088.56
541.076	5928.56
541.175	5955.56
541.274	6138.56
541.373	6096.56
541.472	5966.56
541.571	5897.56
541.67	7202.56
541.769	6019.56
541.868	5977.56
541.966	5894.56
542.065	5977.56
542.164	5908.56
542.263	5735.56
542.362	5758.56
542.461	5941.56
542.56	5753.56
542.658	5765.56
542.757	5816.56
542.856	5621.56
542.955	5662.56
543.054	5576.56
543.152	5857.56
543.251	5694.56
543.35	5878.56
543.449	5683.56
543.547	5677.56
543.646	5644.56
543.745	5819.56
543.843	5789.56
543.942	5756.56
544.041	5779.56
544.14	5777.56
544.238	5684.56
544.337	6025.56
544.436	5902.56
544.534	5953.56
544.633	5810.56
544.731	5755.56
544.83	5829.56
544.929	5856.56
545.027	5825.56
545.126	5774.56
545.224	5870.56
545.323	5840.56
545.421	5809.56
545.52	5793.56
545.619	5865.56
545.717	5740.56
545.816	5860.56
545.914	5816.56
546.013	5987.56
546.111	5981.56
546.209	5778.56
546.308	5703.56
546.406	5707.56
546.505	5917.56
546.603	5825.56
546.702	5663.56
546.8	5663.56
546.899	5644.56
546.997	5781.56
547.095	5747.56
547.194	5836.56
547.292	5810.56
547.39	5799.56
547.489	5603.56
547.587	6022.56
547.685	5640.56
547.784	6015.56
547.882	5820.56
547.98	5731.56
548.079	5718.56
548.177	5603.56
548.275	5705.56
548.373	5882.56
548.472	5686.56
548.57	5705.56
548.668	5858.56
548.766	5680.56
548.864	5813.56
548.963	5703.56
549.061	5863.56
549.159	5742.56
549.257	5838.56
549.355	5800.56
549.454	5780.56
549.552	5954.56
549.65	5824.56
549.748	5871.56
549.846	5812.56
549.944	5713.56
550.042	5721.56
550.14	5759.56
550.238	5661.56
550.336	5561.56
550.434	5572.56
550.532	5638.56
550.631	5689.56
550.729	5644.56
550.827	5716.56
550.925	5602.56
551.023	5606.56
551.121	5634.56
551.218	5545.56
551.316	5546.56
551.414	5633.56
551.512	5512.56
551.61	5496.56
551.708	5632.56
551.806	5621.56
551.904	5542.56
552.002	5649.56
552.1	5763.56
552.198	5788.56
552.296	5859.56
552.393	6102.56
552.491	6037.56
552.589	6027.56
552.687	6217.56
552.785	6166.56
552.882	6184.56
552.98	6514.56
553.078	6324.56
553.176	6263.56
553.274	6161.56
553.371	6133.56
553.469	6223.56
553.567	6141.56
553.665	6049.56
553.762	6495.56
553.86	6039.56
553.958	6059.56
554.055	5878.56
554.153	5933.56
554.251	5903.56
554.348	5776.56
554.446	5749.56
554.544	5728.56
554.641	6191.56
554.739	5602.56
554.837	5693.56
554.934	5614.56
555.032	5545.56
555.129	5575.56
555.227	5748.56
555.324	9379.56
555.422	5753.56
555.519	5469.56
555.617	5450.56
555.715	5257.56
555.812	5789.56
555.91	5308.56
556.007	5246.56
556.105	5233.56
556.202	5378.56
556.299	5170.56
556.397	5263.56
556.494	5298.56
556.592	5198.56
556.689	5299.56
556.787	5225.56
556.884	5119.56
556.981	5143.56
557.079	5151.56
557.176	5324.56
557.273	5247.56
557.371	5291.56
557.468	5249.56
557.566	5249.56
557.663	5082.56
557.76	5204.56
557.857	5175.56
557.955	5222.56
558.052	5253.56
558.149	5307.56
558.247	5388.56
558.344	5170.56
558.441	5226.56
558.538	5177.56
558.636	5184.56
558.733	5266.56
558.83	5221.56
558.927	5106.56
559.024	5156.56
559.122	5063.56
559.219	5167.56
559.316	5230.56
559.413	5309.56
559.51	5116.56
559.607	5151.56
559.704	5260.56
559.801	5297.56
559.899	5173.56
559.996	5544.56
560.093	5185.56
560.19	5095.56
560.287	5369.56
560.384	5341.56
560.481	5183.56
560.578	5238.56
560.675	5288.56
560.772	5235.56
560.869	5130.56
560.966	5440.56
561.063	5199.56
561.16	5331.56
561.257	5339.56
561.354	5358.56
561.451	5206.56
561.548	5471.56
561.645	5404.56
561.742	5236.56
561.838	5250.56
561.935	5362.56
562.032	5267.56
562.129	5297.56
562.226	5317.56
562.323	5261.56
562.42	5381.56
562.516	5394.56
562.613	5267.56
562.71	5251.56
562.807	6210.56
562.904	5390.56
563	5496.56
563.097	5480.56
563.194	5477.56
563.291	5329.56
563.387	5549.56
563.484	5523.56
563.581	5437.56
563.678	5451.56
563.774	5984.56
563.871	5543.56
563.968	5631.56
564.064	5739.56
564.161	5541.56
564.258	5691.56
564.354	5837.56
564.451	5858.56
564.548	5879.56
564.644	5802.56
564.741	5825.56
564.837	5805.56
564.934	6028.56
565.031	6151.56
565.127	6125.56
565.224	6314.56
565.32	6535.56
565.417	6266.56
565.513	6504.56
565.61	6598.56
565.706	6654.56
565.803	6693.56
565.899	6949.56
565.996	7206.56
566.092	7277.56
566.189	7455.56
566.285	7634.56
566.382	7822.56
566.478	8161.56
566.574	8280.56
566.671	8341.56
566.767	8366.56
566.864	8276.56
566.96	8444.56
567.056	8316.56
567.153	8774.56
567.249	8758.56
567.345	9063.56
567.442	9314.56
567.538	9409.56
567.634	9401.56
567.731	9560.56
567.827	9611.56
567.923	9284.56
568.019	8891.56
568.116	8602.56
568.212	8393.56
568.308	8043.56
568.404	7826.56
568.501	7559.56
568.597	7403.56
568.693	7036.56
568.789	7622.56
568.885	6703.56
568.982	6535.56
569.078	6409.56
569.174	6291.56
569.27	6064.56
569.366	6170.56
569.462	6020.56
569.558	5827.56
569.655	5780.56
569.751	5699.56
569.847	5576.56
569.943	5579.56
570.039	5663.56
570.135	6120.56
570.231	5472.56
570.327	5741.56
570.423	5614.56
570.519	5643.56
570.615	5554.56
570.711	5631.56
570.807	5732.56
570.903	5660.56
570.999	5567.56
571.095	5503.56
571.191	5468.56
571.287	5484.56
571.383	5337.56
571.479	5275.56
571.574	5304.56
571.67	5213.56
571.766	5334.56
571.862	5040.56
571.958	4966.56
572.054	5001.56
572.15	4888.56
572.246	4844.56
572.341	4889.56
572.437	4693.56
572.533	4855.56
572.629	4747.56
572.725	4761.56
572.82	4590.56
572.916	4703.56
573.012	4571.56
573.108	4679.56
573.203	4483.56
573.299	4559.56
573.395	4434.56
573.49	4504.56
573.586	4435.56
573.682	4407.56
573.778	4603.56
573.873	4336.56
573.969	4378.56
574.065	4453.56
574.16	4334.56
574.256	4352.56
574.351	4496.56
574.447	4276.56
574.543	4310.56
574.638	4465.56
574.734	4399.56
574.829	4577.56
574.925	4168.56
575.02	4264.56
575.116	4233.56
575.212	4245.56
575.307	4362.56
575.403	4131.56
575.498	4126.56
575.594	4114.56
575.689	4108.56
575.784	4135.56
575.88	4110.56
575.975	4102.56
576.071	4007.56
576.166	3990.56
576.262	4050.56
576.357	3933.56
576.452	4087.56
576.548	4001.56
576.643	3919.56
576.739	4028.56
576.834	4001.56
576.929	3884.56
577.025	4608.56
577.12	3803.56
577.215	3802.56
577.311	3852.56
577.406	3909.56
577.501	4004.56
577.597	3641.56
577.692	3786.56
577.787	3970.56
577.882	3678.56
577.978	3740.56
578.073	3727.56
578.168	3644.56
578.263	3577.56
578.358	3709.56
578.454	3563.56
578.549	3542.56
578.644	3517.56
578.739	3606.56
578.834	3509.56
578.929	3461.56
579.025	3517.56
579.12	3524.56
579.215	3735.56
579.31	3618.56
579.405	3362.56
579.5	3503.56
579.595	3410.56
579.69	3346.56
579.785	3340.56
579.88	3363.56
579.975	3451.56
580.07	3330.56
580.165	3323.56
580.26	3523.56
580.355	3315.56
580.45	3277.56
580.545	3280.56
580.64	3272.56
580.735	3318.56
580.83	3274.56
580.925	3153.56
581.02	3167.56
581.115	3145.56
581.21	3235.56
581.305	3165.56
581.4	3163.56
581.495	3175.56
581.589	3174.56
581.684	3011.56
581.779	3180.56
581.874	3150.56
581.969	3177.56
582.064	3128.56
582.158	3115.56
582.253	2977.56
582.348	3043.56
582.443	3052.56
582.537	3055.56
582.632	3203.56
582.727	3102.56
582.822	2917.56
582.916	2983.56
583.011	2982.56
583.106	2998.56
583.201	2953.56
583.295	2946.56
583.39	2909.56
583.485	2879.56
583.579	4810.56
583.674	3060.56
583.769	3170.56
583.863	2846.56
583.958	2944.56
584.052	2749.56
584.147	2804.56
584.242	2834.56
584.336	2815.56
584.431	3024.56
584.525	2884.56
584.62	3017.56
584.714	2853.56
584.809	2813.56
584.903	2919.56
584.998	2773.56
585.092	2679.56
585.187	2792.56
585.281	2705.56
585.376	2741.56
585.47	2821.56
585.565	2749.56
585.659	2621.56
585.754	2711.56
585.848	2709.56
585.942	2667.56
586.037	2745.56
586.131	5020.56
586.226	2785.56
586.32	2728.56
586.414	2644.56
586.509	2719.56
586.603	2694.56
586.697	2735.56
586.792	2616.56
586.886	2545.56
586.98	2800.56
587.075	2585.56
587.169	2640.56
587.263	2812.56
587.357	2656.56
587.452	2629.56
587.546	2724.56
587.64	2602.56
587.734	2600.56
587.829	2625.56
587.923	2617.56
588.017	2569.56
588.111	2646.56
588.205	2723.56
588.3	2632.56
588.394	2582.56
588.488	2740.56
588.582	2824.56
588.676	2972.56
588.77	3892.56
588.864	6552.56
588.958	6898.56
589.052	5676.56
589.147	4153.56
589.241	3347.56
589.335	3346.56
589.429	4661.56
589.523	5507.56
589.617	5034.56
589.711	3964.56
589.805	3116.56
589.899	2899.56
589.993	2640.56
590.087	2563.56
590.181	2516.56
590.275	2595.56
590.369	2557.56
590.462	2468.56
590.556	2503.56
590.65	2572.56
590.744	2463.56
590.838	2457.56
590.932	2555.56
591.026	2527.56
591.12	2642.56
591.214	2511.56
591.307	2583.56
591.401	2528.56
591.495	2663.56
591.589	2589.56
591.683	2548.56
591.777	2670.56
591.87	2964.56
591.964	2617.56
592.058	2545.56
592.152	2629.56
592.245	2610.56
592.339	2729.56
592.433	2781.56
592.527	2733.56
592.62	2631.56
592.714	2750.56
592.808	2919.56
592.901	2837.56
592.995	2768.56
593.089	3085.56
593.182	2912.56
593.276	2810.56
593.37	2793.56
593.463	2768.56
593.557	2791.56
593.65	2838.56
593.744	2867.56
593.837	2916.56
593.931	2790.56
594.025	6086.56
594.118	3106.56
594.212	2775.56
594.305	2712.56
594.399	2803.56
594.492	3040.56
594.586	2696.56
594.679	2605.56
594.773	2514.56
594.866	2614.56
594.96	2507.56
595.053	2400.56
595.146	2469.56
595.24	2436.56
595.333	2353.56
595.427	2251.56
595.52	2312.56
595.614	2445.56
595.707	2284.56
595.8	2277.56
595.894	2203.56
595.987	2177.56
596.08	2156.56
596.174	2544.56
596.267	2229.56
596.36	2324.56
596.454	2322.56
596.547	2141.56
596.64	2101.56
596.733	2038.56
596.827	2105.56
596.92	2035.56
597.013	2001.56
597.106	1902.56
597.2	2004.56
597.293	1932.56
597.386	2198.56
597.479	2073.56
597.572	1989.56
597.666	2003.56
597.759	1893.56
597.852	2038.56
597.945	1893.56
598.038	1908.56
598.131	1917.56
598.224	1897.56
598.317	2006.56
598.411	1921.56
598.504	1870.56
598.597	1934.56
598.69	1827.56
598.783	1915.56
598.876	1944.56
598.969	1878.56
599.062	1826.56
599.155	2033.56
599.248	1851.56
599.341	1876.56
599.434	1883.56
599.527	1901.56
599.62	1859.56
599.713	1875.56
599.806	1894.56
599.899	2045.56
599.991	1849.56
600.084	2081.56
600.177	1819.56
600.27	1811.56
600.363	2036.56
600.456	1771.56
600.549	1849.56
600.642	1745.56
600.734	1747.56
600.827	1810.56
600.92	1968.56
601.013	1828.56
601.106	1913.56
601.199	1789.56
601.291	1863.56
601.384	1792.56
601.477	2016.56
601.57	1917.56
601.662	1773.56
601.755	1838.56
601.848	1855.56
601.94	1781.56
602.033	1909.56
602.126	1824.56
602.219	1771.56
602.311	1881.56
602.404	1779.56
602.497	1788.56
602.589	1712.56
602.682	1848.56
602.774	1838.56
602.867	1758.56
602.96	1767.56
603.052	1799.56
603.145	1738.56
603.237	1719.56
603.33	1812.56
603.422	1867.56
603.515	1662.56
603.608	1780.56
603.7	1824.56
603.793	1698.56
603.885	1804.56
603.978	1786.56
604.07	1658.56
604.163	1652.56
604.255	1742.56
604.347	1607.56
604.44	1658.56
604.532	1735.56
604.625	1721.56
604.717	1641.56
604.81	1723.56
604.902	1737.56
604.994	1604.56
605.087	1681.56
605.179	1741.56
605.271	1768.56
605.364	1717.56
605.456	1834.56
605.548	1689.56
605.641	1739.56
605.733	1725.56
605.825	1719.56
605.918	1592.56
606.01	1815.56
606.102	2148.56
606.194	1672.56
606.287	1834.56
606.379	1672.56
606.471	1668.56
606.563	1778.56
606.655	1763.56
606.748	1720.56
606.84	1707.56
606.932	1759.56
607.024	1648.56
607.116	1567.56
607.208	1615.56
607.301	1696.56
607.393	1660.56
607.485	1643.56
607.577	1682.56
607.669	1758.56
607.761	1688.56
607.853	2001.56
607.945	1646.56
608.037	1552.56
608.129	1680.56
608.221	1683.56
608.313	1628.56
608.405	1702.56
608.497	1673.56
608.589	1632.56
608.681	1655.56
608.773	1711.56
608.865	1604.56
608.957	1622.56
609.049	1639.56
609.141	1711.56
609.233	1623.56
609.325	1591.56
609.417	1559.56
609.509	1727.56
609.601	1769.56
609.693	1743.56
609.784	1595.56
609.876	1601.56
609.968	1715.56
610.06	3784.56
610.152	1826.56
610.244	1936.56
610.335	1636.56
610.427	1598.56
610.519	1603.56
610.611	1633.56
610.702	1554.56
610.794	1611.56
610.886	1655.56
610.978	1520.56
611.069	1938.56
611.161	1561.56
611.253	1565.56
611.344	1472.56
611.436	1468.56
611.528	1484.56
611.62	1391.56
611.711	1451.56
611.803	1369.56
611.894	1306.56
611.986	1393.56
612.078	1400.56
612.169	1343.56
612.261	1289.56
612.352	1240.56
612.444	1254.56
612.536	1379.56
612.627	1249.56
612.719	1146.56
612.81	1156.56
612.902	1138.56
612.993	1133.56
613.085	1112.56
613.176	1105.56
613.268	1187.56
613.359	1105.56
613.451	1072.56
613.542	1141.56
613.634	1026.56
613.725	1089.56
613.816	1170.56
613.908	951.56
613.999	930.56
614.091	908.56
614.182	890.56
614.273	890.56
614.365	887.56
614.456	811.56
614.547	820.56
614.639	793.56
614.73	790.56
614.821	857.56
614.913	695.56
615.004	713.56
615.095	693.56
615.187	667.56
