Data from 14g_HRC06701__40__223.txt Node

Date: Thu Apr 18 01:58:34 CDT 2024
User: Estudiantes 2
Spectrometer: HR+C0670
Trigger mode: 4
Integration Time (sec): 1.000000E0
Scans to average: 1
Electric dark correction enabled: true
Nonlinearity correction enabled: false
Boxcar width: 0
XAxis mode: Wavelengths
Number of Pixels in Spectrum: 2048
>>>>>Begin Spectral Data<<<<<
407.81	-102.69
407.921	-102.69
408.032	-102.69
408.143	-137.69
408.254	-113.69
408.365	10.31
408.476	242.31
408.587	-46.69
408.699	-7.69
408.81	39.31
408.921	-45.69
409.032	-74.69
409.143	109.31
409.254	2.31
409.365	77.31
409.476	1.31
409.587	0.31
409.698	46.31
409.809	94.31
409.92	14.31
410.031	-48.69
410.142	65.31
410.253	44.31
410.364	-4.69
410.475	432.31
410.585	2339.31
410.696	2489.31
410.807	2392.31
410.918	2456.31
411.029	2449.31
411.14	2483.31
411.251	2448.31
411.362	2525.31
411.472	2485.31
411.583	2499.31
411.694	2630.31
411.805	2474.31
411.916	2495.31
412.026	2672.31
412.137	2485.31
412.248	2541.31
412.359	2553.31
412.47	2419.31
412.58	2322.31
412.691	2497.31
412.802	2388.31
412.912	2418.31
413.023	2499.31
413.134	2418.31
413.245	2465.31
413.355	2470.31
413.466	2460.31
413.577	2411.31
413.687	2447.31
413.798	2412.31
413.909	2449.31
414.019	2451.31
414.13	2466.31
414.24	2495.31
414.351	2470.31
414.462	2672.31
414.572	2575.31
414.683	2483.31
414.793	2460.31
414.904	2842.31
415.014	2452.31
415.125	2355.31
415.235	2504.31
415.346	2566.31
415.456	2581.31
415.567	2506.31
415.677	2441.31
415.788	2425.31
415.898	2491.31
416.009	2508.31
416.119	2513.31
416.23	2442.31
416.34	2425.31
416.45	2450.31
416.561	3311.31
416.671	2627.31
416.782	2357.31
416.892	2455.31
417.002	2485.31
417.113	2593.31
417.223	2544.31
417.333	2541.31
417.444	2595.31
417.554	2557.31
417.664	2647.31
417.775	2584.31
417.885	2633.31
417.995	2620.31
418.106	2820.31
418.216	2640.31
418.326	2702.31
418.436	2818.31
418.547	2804.31
418.657	2708.31
418.767	2831.31
418.877	2850.31
418.987	2783.31
419.098	2867.31
419.208	2920.31
419.318	2887.31
419.428	2923.31
419.538	2873.31
419.648	2838.31
419.759	2905.31
419.869	2891.31
419.979	2769.31
420.089	2789.31
420.199	2840.31
420.309	2900.31
420.419	2912.31
420.529	2816.31
420.639	3460.31
420.749	2995.31
420.859	2986.31
420.969	3012.31
421.079	3144.31
421.189	2991.31
421.299	2912.31
421.409	2893.31
421.519	3048.31
421.629	3092.31
421.739	2974.31
421.849	2933.31
421.959	2990.31
422.069	3094.31
422.179	3059.31
422.289	3091.31
422.399	3194.31
422.509	3238.31
422.619	6507.31
422.729	3521.31
422.838	3157.31
422.948	3231.31
423.058	3217.31
423.168	3292.31
423.278	3258.31
423.388	3340.31
423.498	3503.31
423.607	3417.31
423.717	3612.31
423.827	3813.31
423.937	3527.31
424.046	3556.31
424.156	3618.31
424.266	3490.31
424.376	3745.31
424.485	3712.31
424.595	3604.31
424.705	3564.31
424.815	3613.31
424.924	4094.31
425.034	3559.31
425.144	3492.31
425.253	3670.31
425.363	3721.31
425.473	3725.31
425.582	3626.31
425.692	3681.31
425.801	3660.31
425.911	3836.31
426.021	3778.31
426.13	3883.31
426.24	3914.31
426.349	3924.31
426.459	3869.31
426.568	3762.31
426.678	3945.31
426.787	3852.31
426.897	3684.31
427.006	3945.31
427.116	4018.31
427.225	3949.31
427.335	4054.31
427.444	4011.31
427.554	4025.31
427.663	4010.31
427.773	3991.31
427.882	4082.31
427.992	4026.31
428.101	4156.31
428.21	4108.31
428.32	4239.31
428.429	4124.31
428.539	4460.31
428.648	4121.31
428.757	4150.31
428.867	4236.31
428.976	4384.31
429.085	4298.31
429.195	4300.31
429.304	4301.31
429.413	4309.31
429.523	4496.31
429.632	4394.31
429.741	4356.31
429.85	4315.31
429.96	4516.31
430.069	4432.31
430.178	4452.31
430.287	4867.31
430.397	4505.31
430.506	4467.31
430.615	4563.31
430.724	4630.31
430.833	4611.31
430.943	4600.31
431.052	4547.31
431.161	4612.31
431.27	4758.31
431.379	4580.31
431.488	5013.31
431.597	4965.31
431.706	4942.31
431.816	4892.31
431.925	4873.31
432.034	4859.31
432.143	4839.31
432.252	4783.31
432.361	4962.31
432.47	4839.31
432.579	4868.31
432.688	4909.31
432.797	4868.31
432.906	4758.31
433.015	5011.31
433.124	5289.31
433.233	4891.31
433.342	4866.31
433.451	4945.31
433.56	4789.31
433.669	4932.31
433.778	4925.31
433.886	5032.31
433.995	5118.31
434.104	5228.31
434.213	5156.31
434.322	5143.31
434.431	5414.31
434.54	5364.31
434.649	5586.31
434.757	5451.31
434.866	5364.31
434.975	5373.31
435.084	5344.31
435.193	5144.31
435.301	5335.31
435.41	5275.31
435.519	5421.31
435.628	4810.31
435.737	4740.31
435.845	4728.31
435.954	4603.31
436.063	4594.31
436.171	4673.31
436.28	4681.31
436.389	4744.31
436.498	4568.31
436.606	4678.31
436.715	4809.31
436.823	4569.31
436.932	4509.31
437.041	4476.31
437.149	4487.31
437.258	4417.31
437.367	4305.31
437.475	4299.31
437.584	4576.31
437.692	4407.31
437.801	5812.31
437.91	4378.31
438.018	4350.31
438.127	4191.31
438.235	4326.31
438.344	4342.31
438.452	4242.31
438.561	4209.31
438.669	4243.31
438.778	4178.31
438.886	4208.31
438.995	4146.31
439.103	4321.31
439.212	4291.31
439.32	4232.31
439.428	4258.31
439.537	4217.31
439.645	4361.31
439.754	4379.31
439.862	4139.31
439.97	4170.31
440.079	4301.31
440.187	4280.31
440.295	4426.31
440.404	4330.31
440.512	4439.31
440.62	4345.31
440.729	4504.31
440.837	4472.31
440.945	5091.31
441.054	4603.31
441.162	4599.31
441.27	4822.31
441.378	4796.31
441.487	4807.31
441.595	5179.31
441.703	4753.31
441.811	4698.31
441.92	4691.31
442.028	4614.31
442.136	4692.31
442.244	4668.31
442.352	4568.31
442.461	4449.31
442.569	4617.31
442.677	4516.31
442.785	4592.31
442.893	4502.31
443.001	4536.31
443.109	4388.31
443.217	4546.31
443.325	4579.31
443.434	5175.31
443.542	4931.31
443.65	4814.31
443.758	4799.31
443.866	4797.31
443.974	5252.31
444.082	4888.31
444.19	5134.31
444.298	5164.31
444.406	5250.31
444.514	5291.31
444.622	5380.31
444.73	5461.31
444.838	5241.31
444.946	5247.31
445.054	5145.31
445.161	4992.31
445.269	4899.31
445.377	4961.31
445.485	4870.31
445.593	4719.31
445.701	4898.31
445.809	4796.31
445.917	4635.31
446.025	4549.31
446.132	4783.31
446.24	4639.31
446.348	4754.31
446.456	4650.31
446.564	4642.31
446.671	4653.31
446.779	4628.31
446.887	4499.31
446.995	4442.31
447.102	4630.31
447.21	4517.31
447.318	4521.31
447.426	4565.31
447.533	4925.31
447.641	5804.31
447.749	4602.31
447.856	4602.31
447.964	4613.31
448.072	4629.31
448.179	4530.31
448.287	4540.31
448.395	4595.31
448.502	4441.31
448.61	4512.31
448.718	4450.31
448.825	4710.31
448.933	4655.31
449.04	4610.31
449.148	4732.31
449.256	4691.31
449.363	4780.31
449.471	4766.31
449.578	4888.31
449.686	4747.31
449.793	4875.31
449.901	4846.31
450.008	4949.31
450.116	4930.31
450.223	4888.31
450.331	5098.31
450.438	5105.31
450.546	5204.31
450.653	5291.31
450.76	5301.31
450.868	5210.31
450.975	5526.31
451.083	5199.31
451.19	5286.31
451.297	5274.31
451.405	5359.31
451.512	5323.31
451.619	5425.31
451.727	5459.31
451.834	5403.31
451.941	5385.31
452.049	5415.31
452.156	5340.31
452.263	5515.31
452.371	5599.31
452.478	5474.31
452.585	5634.31
452.692	5599.31
452.8	5634.31
452.907	5707.31
453.014	5639.31
453.121	5698.31
453.229	5629.31
453.336	5665.31
453.443	5754.31
453.55	5640.31
453.657	5681.31
453.765	5940.31
453.872	5659.31
453.979	5801.31
454.086	5899.31
454.193	5865.31
454.3	5787.31
454.407	5960.31
454.514	5984.31
454.621	5899.31
454.729	5915.31
454.836	5996.31
454.943	5979.31
455.05	6039.31
455.157	6072.31
455.264	5874.31
455.371	6047.31
455.478	6069.31
455.585	6325.31
455.692	6132.31
455.799	6355.31
455.906	6033.31
456.013	6004.31
456.12	6151.31
456.227	6185.31
456.334	6249.31
456.44	6473.31
456.547	6397.31
456.654	6224.31
456.761	6394.31
456.868	6502.31
456.975	6476.31
457.082	6391.31
457.189	6279.31
457.296	6479.31
457.402	6492.31
457.509	6432.31
457.616	6675.31
457.723	6790.31
457.83	6737.31
457.936	6832.31
458.043	7121.31
458.15	6787.31
458.257	7026.31
458.363	7117.31
458.47	7094.31
458.577	7326.31
458.684	7162.31
458.79	7439.31
458.897	7378.31
459.004	7838.31
459.11	7654.31
459.217	7640.31
459.324	7896.31
459.43	8004.31
459.537	8276.31
459.644	8084.31
459.75	8190.31
459.857	8520.31
459.964	8406.31
460.07	8524.31
460.177	8638.31
460.283	8706.31
460.39	8835.31
460.496	8582.31
460.603	8593.31
460.71	8623.31
460.816	8534.31
460.923	8571.31
461.029	8620.31
461.136	8667.31
461.242	8512.31
461.349	8683.31
461.455	8721.31
461.562	8963.31
461.668	8869.31
461.774	8772.31
461.881	8837.31
461.987	8976.31
462.094	9229.31
462.2	9221.31
462.307	9321.31
462.413	9136.31
462.519	9426.31
462.626	9928.31
462.732	10050.31
462.838	10355.31
462.945	10660.31
463.051	10774.31
463.157	10563.31
463.264	10304.31
463.37	10054.31
463.476	9783.31
463.583	9728.31
463.689	9571.31
463.795	9571.31
463.901	9552.31
464.008	9785.31
464.114	9587.31
464.22	9644.31
464.326	9517.31
464.433	9125.31
464.539	9165.31
464.645	8841.31
464.751	8924.31
464.857	8652.31
464.963	8330.31
465.07	8094.31
465.176	7915.31
465.282	7696.31
465.388	7695.31
465.494	7267.31
465.6	7270.31
465.706	6929.31
465.812	6873.31
465.918	7023.31
466.024	6811.31
466.131	6757.31
466.237	6631.31
466.343	6410.31
466.449	6388.31
466.555	6269.31
466.661	6159.31
466.767	6211.31
466.873	6099.31
466.979	6240.31
467.085	5990.31
467.191	6049.31
467.296	5965.31
467.402	5929.31
467.508	6009.31
467.614	6072.31
467.72	5821.31
467.826	5713.31
467.932	5670.31
468.038	5614.31
468.144	5635.31
468.25	5560.31
468.355	5541.31
468.461	5476.31
468.567	5476.31
468.673	5531.31
468.779	5461.31
468.885	5377.31
468.99	5494.31
469.096	5406.31
469.202	5563.31
469.308	5570.31
469.413	5672.31
469.519	5549.31
469.625	5666.31
469.731	5646.31
469.836	5552.31
469.942	5692.31
470.048	5755.31
470.153	5667.31
470.259	5655.31
470.365	5847.31
470.47	5644.31
470.576	5581.31
470.682	5673.31
470.787	5388.31
470.893	5342.31
470.999	5389.31
471.104	5493.31
471.21	5136.31
471.315	5104.31
471.421	5085.31
471.527	5364.31
471.632	5094.31
471.738	5106.31
471.843	4905.31
471.949	5028.31
472.054	5032.31
472.16	4943.31
472.265	4819.31
472.371	4827.31
472.476	4765.31
472.582	4922.31
472.687	4628.31
472.793	4774.31
472.898	4680.31
473.003	4696.31
473.109	4612.31
473.214	4584.31
473.32	4584.31
473.425	4712.31
473.53	4691.31
473.636	4578.31
473.741	4579.31
473.847	4505.31
473.952	4469.31
474.057	4462.31
474.163	4515.31
474.268	4417.31
474.373	4611.31
474.478	4483.31
474.584	4442.31
474.689	4614.31
474.794	4643.31
474.9	4740.31
475.005	4427.31
475.11	4720.31
475.215	4465.31
475.321	4439.31
475.426	4690.31
475.531	4625.31
475.636	4557.31
475.741	4499.31
475.846	4719.31
475.952	4793.31
476.057	4592.31
476.162	4707.31
476.267	4756.31
476.372	4877.31
476.477	4635.31
476.582	4781.31
476.687	4635.31
476.793	4720.31
476.898	4727.31
477.003	4851.31
477.108	4835.31
477.213	4864.31
477.318	4791.31
477.423	4921.31
477.528	5067.31
477.633	5051.31
477.738	5084.31
477.843	4977.31
477.948	5146.31
478.053	5063.31
478.158	5055.31
478.263	5307.31
478.368	5219.31
478.473	5269.31
478.578	5373.31
478.682	5197.31
478.787	5456.31
478.892	5388.31
478.997	5548.31
479.102	5368.31
479.207	5396.31
479.312	5557.31
479.417	5515.31
479.521	5456.31
479.626	5536.31
479.731	5511.31
479.836	5586.31
479.941	5861.31
480.045	5677.31
480.15	5766.31
480.255	5915.31
480.36	5781.31
480.465	5837.31
480.569	5997.31
480.674	5714.31
480.779	5619.31
480.883	5722.31
480.988	5701.31
481.093	5650.31
481.197	5592.31
481.302	5651.31
481.407	5632.31
481.511	6886.31
481.616	5667.31
481.721	5556.31
481.825	5719.31
481.93	5530.31
482.035	5603.31
482.139	5707.31
482.244	5642.31
482.348	5659.31
482.453	5639.31
482.557	5782.31
482.662	5765.31
482.767	5519.31
482.871	5622.31
482.976	5737.31
483.08	5817.31
483.185	5981.31
483.289	5947.31
483.394	5844.31
483.498	5854.31
483.603	6028.31
483.707	5986.31
483.811	6089.31
483.916	6108.31
484.02	6058.31
484.125	6253.31
484.229	6212.31
484.333	6432.31
484.438	6113.31
484.542	6198.31
484.647	6423.31
484.751	6378.31
484.855	6405.31
484.96	6436.31
485.064	6517.31
485.168	6457.31
485.273	6529.31
485.377	6712.31
485.481	6789.31
485.585	6661.31
485.69	6784.31
485.794	6784.31
485.898	6772.31
486.002	6813.31
486.107	6884.31
486.211	6973.31
486.315	6853.31
486.419	7013.31
486.524	6898.31
486.628	6850.31
486.732	6811.31
486.836	6719.31
486.94	6890.31
487.044	6921.31
487.148	6910.31
487.253	6802.31
487.357	6999.31
487.461	7053.31
487.565	6920.31
487.669	6817.31
487.773	6837.31
487.877	6904.31
487.981	6945.31
488.085	6882.31
488.189	6870.31
488.293	7023.31
488.397	7421.31
488.501	6900.31
488.605	6793.31
488.709	6929.31
488.813	6869.31
488.917	6854.31
489.021	6909.31
489.125	7166.31
489.229	6867.31
489.333	7150.31
489.437	7026.31
489.541	7005.31
489.645	6915.31
489.749	7095.31
489.853	7078.31
489.956	6958.31
490.06	7048.31
490.164	7084.31
490.268	6982.31
490.372	7062.31
490.476	7083.31
490.579	7051.31
490.683	7696.31
490.787	7185.31
490.891	7050.31
490.995	7058.31
491.098	7051.31
491.202	6961.31
491.306	7115.31
491.41	7072.31
491.513	7058.31
491.617	7055.31
491.721	7299.31
491.824	7293.31
491.928	7068.31
492.032	7353.31
492.136	7138.31
492.239	7068.31
492.343	7098.31
492.446	7556.31
492.55	6955.31
492.654	6970.31
492.757	7099.31
492.861	7081.31
492.965	6891.31
493.068	7131.31
493.172	7091.31
493.275	7049.31
493.379	6980.31
493.482	7191.31
493.586	7211.31
493.689	7303.31
493.793	7157.31
493.896	7199.31
494	7172.31
494.103	7237.31
494.207	7310.31
494.31	7417.31
494.414	7211.31
494.517	7129.31
494.621	6938.31
494.724	7028.31
494.828	6925.31
494.931	7023.31
495.034	6958.31
495.138	7214.31
495.241	6909.31
495.345	7753.31
495.448	7162.31
495.551	7021.31
495.655	7014.31
495.758	6994.31
495.861	6962.31
495.965	6954.31
496.068	7111.31
496.171	7033.31
496.274	6916.31
496.378	7032.31
496.481	7174.31
496.584	7080.31
496.687	7090.31
496.791	7289.31
496.894	7222.31
496.997	7065.31
497.1	7222.31
497.204	7202.31
497.307	7228.31
497.41	7470.31
497.513	7607.31
497.616	7439.31
497.719	7382.31
497.823	7648.31
497.926	7683.31
498.029	7960.31
498.132	8071.31
498.235	8224.31
498.338	8298.31
498.441	8612.31
498.544	8609.31
498.647	8850.31
498.75	9138.31
498.853	9488.31
498.956	9554.31
499.059	10071.31
499.163	10232.31
499.266	10586.31
499.369	10872.31
499.471	11333.31
499.574	11743.31
499.677	12021.31
499.78	12862.31
499.883	13343.31
499.986	14048.31
500.089	14409.31
500.192	14558.31
500.295	14558.31
500.398	14558.31
500.501	14558.31
500.604	14279.31
500.707	13623.31
500.809	13205.31
500.912	12689.31
501.015	12140.31
501.118	11504.31
501.221	11158.31
501.324	10547.31
501.426	10170.31
501.529	9707.31
501.632	9379.31
501.735	9062.31
501.837	8712.31
501.94	8446.31
502.043	8213.31
502.146	8114.31
502.248	7906.31
502.351	7757.31
502.454	7603.31
502.557	7420.31
502.659	7296.31
502.762	6914.31
502.865	6932.31
502.967	6748.31
503.07	6758.31
503.173	6675.31
503.275	6558.31
503.378	6447.31
503.48	6409.31
503.583	6483.31
503.686	6280.31
503.788	6517.31
503.891	6283.31
503.993	6479.31
504.096	6222.31
504.198	6306.31
504.301	6209.31
504.403	6295.31
504.506	6185.31
504.608	6096.31
504.711	6027.31
504.813	5971.31
504.916	5696.31
505.018	5557.31
505.121	5555.31
505.223	5565.31
505.326	5345.31
505.428	5453.31
505.531	5283.31
505.633	5159.31
505.735	5126.31
505.838	5070.31
505.94	5049.31
506.042	4992.31
506.145	4916.31
506.247	5020.31
506.35	4891.31
506.452	4940.31
506.554	4948.31
506.656	4876.31
506.759	4829.31
506.861	4884.31
506.963	4769.31
507.066	4821.31
507.168	4878.31
507.27	4734.31
507.372	4590.31
507.475	4670.31
507.577	4705.31
507.679	4595.31
507.781	4593.31
507.883	4545.31
507.986	4515.31
508.088	4571.31
508.19	4635.31
508.292	4495.31
508.394	4409.31
508.496	4557.31
508.598	4479.31
508.701	4457.31
508.803	4547.31
508.905	4373.31
509.007	4445.31
509.109	4456.31
509.211	4452.31
509.313	4409.31
509.415	4327.31
509.517	4381.31
509.619	4248.31
509.721	4357.31
509.823	4391.31
509.925	4448.31
510.027	4303.31
510.129	4367.31
510.231	4312.31
510.333	4219.31
510.435	4302.31
510.537	4419.31
510.639	4395.31
510.741	4317.31
510.843	4406.31
510.945	4274.31
511.047	4343.31
511.148	4378.31
511.25	4231.31
511.352	4383.31
511.454	4254.31
511.556	4361.31
511.658	4276.31
511.76	4362.31
511.861	4460.31
511.963	4218.31
512.065	4380.31
512.167	4260.31
512.268	4402.31
512.37	4353.31
512.472	4434.31
512.574	4341.31
512.676	4442.31
512.777	4378.31
512.879	4229.31
512.981	4242.31
513.082	4369.31
513.184	4348.31
513.286	4790.31
513.387	4508.31
513.489	4534.31
513.591	4415.31
513.692	4501.31
513.794	4430.31
513.896	4403.31
513.997	4393.31
514.099	4439.31
514.2	4516.31
514.302	4421.31
514.404	4576.31
514.505	4555.31
514.607	4635.31
514.708	4489.31
514.81	4665.31
514.911	4620.31
515.013	4733.31
515.114	4790.31
515.216	4643.31
515.317	4728.31
515.419	4752.31
515.52	4816.31
515.622	4866.31
515.723	5004.31
515.825	5067.31
515.926	4945.31
516.027	5009.31
516.129	5051.31
516.23	5043.31
516.332	5264.31
516.433	5290.31
516.534	5418.31
516.636	5379.31
516.737	5480.31
516.838	6571.31
516.94	5749.31
517.041	5957.31
517.142	6170.31
517.244	6163.31
517.345	6228.31
517.446	6211.31
517.547	6290.31
517.649	6360.31
517.75	6365.31
517.851	6038.31
517.952	6479.31
518.054	6294.31
518.155	6210.31
518.256	5871.31
518.357	6093.31
518.458	5772.31
518.56	5654.31
518.661	5631.31
518.762	5626.31
518.863	5626.31
518.964	5463.31
519.065	5448.31
519.166	5337.31
519.268	5307.31
519.369	5615.31
519.47	5206.31
519.571	5164.31
519.672	5170.31
519.773	5093.31
519.874	5111.31
519.975	5064.31
520.076	5093.31
520.177	5152.31
520.278	5087.31
520.379	5125.31
520.48	4922.31
520.581	4841.31
520.682	4961.31
520.783	4912.31
520.884	5102.31
520.985	5075.31
521.086	4874.31
521.187	5007.31
521.288	4946.31
521.389	4977.31
521.489	4813.31
521.59	4836.31
521.691	4903.31
521.792	4842.31
521.893	5062.31
521.994	5061.31
522.095	4913.31
522.195	4902.31
522.296	5059.31
522.397	4940.31
522.498	4873.31
522.599	4820.31
522.699	4866.31
522.8	4850.31
522.901	4978.31
523.002	4905.31
523.102	5073.31
523.203	4850.31
523.304	5048.31
523.405	4835.31
523.505	4860.31
523.606	4938.31
523.707	4897.31
523.807	4879.31
523.908	4891.31
524.009	5050.31
524.109	4891.31
524.21	4876.31
524.31	4950.31
524.411	4908.31
524.512	5060.31
524.612	5036.31
524.713	5085.31
524.813	4843.31
524.914	5145.31
525.014	9091.31
525.115	5267.31
525.216	4949.31
525.316	4922.31
525.417	4873.31
525.517	4896.31
525.618	4868.31
525.718	4838.31
525.819	4869.31
525.919	4958.31
526.019	4879.31
526.12	5033.31
526.22	4843.31
526.321	4871.31
526.421	4696.31
526.522	4787.31
526.622	4769.31
526.722	4833.31
526.823	4859.31
526.923	4824.31
527.023	4977.31
527.124	4815.31
527.224	4993.31
527.324	4797.31
527.425	4869.31
527.525	4815.31
527.625	4740.31
527.726	4731.31
527.826	4919.31
527.926	4798.31
528.026	4820.31
528.127	4795.31
528.227	4853.31
528.327	4776.31
528.427	4780.31
528.528	4779.31
528.628	4889.31
528.728	4840.31
528.828	4976.31
528.928	4859.31
529.029	4764.31
529.129	4871.31
529.229	4778.31
529.329	4821.31
529.429	4806.31
529.529	4797.31
529.629	4769.31
529.729	4773.31
529.829	4982.31
529.93	4663.31
530.03	4721.31
530.13	4752.31
530.23	4754.31
530.33	4789.31
530.43	4748.31
530.53	4652.31
530.63	4647.31
530.73	4585.31
530.83	4534.31
530.93	4610.31
531.03	4595.31
531.13	4680.31
531.23	4477.31
531.33	4649.31
531.429	4742.31
531.529	4755.31
531.629	4641.31
531.729	4516.31
531.829	4499.31
531.929	4532.31
532.029	4688.31
532.129	4607.31
532.229	4525.31
532.328	4571.31
532.428	4434.31
532.528	4399.31
532.628	4384.31
532.728	4507.31
532.827	4436.31
532.927	4520.31
533.027	4442.31
533.127	4563.31
533.227	4439.31
533.326	4512.31
533.426	4304.31
533.526	4429.31
533.625	4525.31
533.725	4672.31
533.825	4414.31
533.924	4317.31
534.024	4226.31
534.124	4248.31
534.223	4267.31
534.323	4721.31
534.423	4293.31
534.522	4146.31
534.622	4193.31
534.722	4151.31
534.821	4218.31
534.921	4163.31
535.02	4135.31
535.12	4218.31
535.219	4275.31
535.319	4205.31
535.419	4181.31
535.518	4044.31
535.618	4110.31
535.717	4098.31
535.817	3929.31
535.916	3907.31
536.016	4011.31
536.115	3895.31
536.215	3955.31
536.314	3825.31
536.413	3808.31
536.513	3817.31
536.612	3911.31
536.712	3716.31
536.811	3847.31
536.91	3731.31
537.01	3795.31
537.109	3857.31
537.209	3815.31
537.308	3673.31
537.407	3773.31
537.507	3724.31
537.606	3664.31
537.705	3666.31
537.805	3685.31
537.904	3631.31
538.003	3706.31
538.102	3852.31
538.202	3723.31
538.301	3696.31
538.4	3651.31
538.499	3722.31
538.599	3587.31
538.698	3821.31
538.797	3634.31
538.896	3653.31
538.995	3618.31
539.095	3605.31
539.194	3835.31
539.293	3452.31
539.392	3510.31
539.491	3619.31
539.59	3611.31
539.689	3692.31
539.789	3591.31
539.888	3321.31
539.987	3386.31
540.086	3513.31
540.185	3493.31
540.284	3553.31
540.383	3558.31
540.482	3461.31
540.581	3410.31
540.68	3449.31
540.779	3508.31
540.878	3421.31
540.977	3498.31
541.076	3446.31
541.175	3462.31
541.274	3579.31
541.373	3431.31
541.472	3428.31
541.571	3321.31
541.67	4565.31
541.769	3501.31
541.868	3343.31
541.966	3430.31
542.065	3435.31
542.164	3254.31
542.263	3261.31
542.362	3299.31
542.461	3354.31
542.56	3316.31
542.658	3383.31
542.757	3352.31
542.856	3170.31
542.955	3254.31
543.054	3185.31
543.152	3411.31
543.251	3268.31
543.35	3444.31
543.449	3270.31
543.547	3288.31
543.646	3209.31
543.745	3244.31
543.843	3363.31
543.942	3346.31
544.041	3253.31
544.14	3202.31
544.238	3216.31
544.337	3500.31
544.436	3275.31
544.534	3396.31
544.633	3414.31
544.731	3290.31
544.83	3254.31
544.929	3415.31
545.027	3260.31
545.126	3209.31
545.224	3420.31
545.323	3345.31
545.421	3243.31
545.52	3274.31
545.619	3271.31
545.717	3239.31
545.816	3406.31
545.914	3372.31
546.013	3453.31
546.111	3392.31
546.209	3301.31
546.308	3260.31
546.406	3161.31
546.505	3468.31
546.603	3303.31
546.702	3201.31
546.8	3257.31
546.899	3213.31
546.997	3216.31
547.095	3240.31
547.194	3409.31
547.292	3275.31
547.39	3352.31
547.489	3265.31
547.587	3536.31
547.685	3215.31
547.784	3511.31
547.882	3344.31
547.98	3196.31
548.079	3386.31
548.177	3260.31
548.275	3216.31
548.373	3416.31
548.472	3287.31
548.57	3196.31
548.668	3387.31
548.766	3209.31
548.864	3325.31
548.963	3237.31
549.061	3447.31
549.159	3167.31
549.257	3333.31
549.355	3235.31
549.454	3217.31
549.552	3408.31
549.65	3312.31
549.748	3271.31
549.846	3244.31
549.944	3324.31
550.042	3316.31
550.14	3212.31
550.238	3286.31
550.336	3169.31
550.434	3124.31
550.532	3146.31
550.631	3271.31
550.729	3188.31
550.827	3170.31
550.925	3255.31
551.023	3261.31
551.121	3130.31
551.218	3190.31
551.316	3114.31
551.414	3150.31
551.512	3093.31
551.61	3241.31
551.708	3253.31
551.806	3264.31
551.904	3260.31
552.002	3251.31
552.1	3325.31
552.198	3294.31
552.296	3535.31
552.393	3449.31
552.491	3584.31
552.589	3593.31
552.687	3595.31
552.785	3490.31
552.882	3642.31
552.98	3675.31
553.078	3646.31
553.176	3658.31
553.274	3529.31
553.371	3500.31
553.469	3563.31
553.567	3512.31
553.665	3419.31
553.762	3842.31
553.86	3562.31
553.958	3456.31
554.055	3424.31
554.153	3475.31
554.251	3278.31
554.348	3315.31
554.446	3265.31
554.544	3292.31
554.641	3541.31
554.739	3233.31
554.837	3237.31
554.934	3197.31
555.032	3197.31
555.129	3164.31
555.227	3413.31
555.324	7112.31
555.422	3584.31
555.519	3104.31
555.617	3094.31
555.715	2891.31
555.812	3503.31
555.91	3025.31
556.007	3065.31
556.105	3061.31
556.202	3025.31
556.299	2947.31
556.397	3040.31
556.494	2971.31
556.592	2981.31
556.689	3060.31
556.787	2961.31
556.884	2853.31
556.981	2943.31
557.079	2884.31
557.176	3008.31
557.273	2956.31
557.371	3087.31
557.468	2934.31
557.566	2992.31
557.663	2960.31
557.76	2886.31
557.857	2933.31
557.955	2993.31
558.052	2979.31
558.149	3019.31
558.247	3107.31
558.344	2916.31
558.441	2827.31
558.538	2888.31
558.636	2929.31
558.733	2948.31
558.83	2901.31
558.927	2952.31
559.024	2922.31
559.122	2859.31
559.219	2978.31
559.316	3024.31
559.413	3057.31
559.51	2964.31
559.607	2911.31
559.704	2976.31
559.801	3000.31
559.899	2937.31
559.996	3076.31
560.093	2947.31
560.19	2946.31
560.287	3024.31
560.384	3094.31
560.481	2964.31
560.578	2941.31
560.675	2874.31
560.772	3097.31
560.869	3012.31
560.966	3094.31
561.063	2941.31
561.16	3080.31
561.257	2985.31
561.354	3019.31
561.451	3024.31
561.548	3027.31
561.645	3149.31
561.742	2904.31
561.838	2924.31
561.935	2949.31
562.032	3077.31
562.129	3071.31
562.226	2953.31
562.323	2995.31
562.42	3075.31
562.516	2984.31
562.613	3029.31
562.71	3067.31
562.807	3770.31
562.904	3045.31
563	3097.31
563.097	3051.31
563.194	3109.31
563.291	3044.31
563.387	3107.31
563.484	3163.31
563.581	3108.31
563.678	3128.31
563.774	3517.31
563.871	3227.31
563.968	3247.31
564.064	3226.31
564.161	3194.31
564.258	3252.31
564.354	3330.31
564.451	3271.31
564.548	3303.31
564.644	3291.31
564.741	3282.31
564.837	3247.31
564.934	3334.31
565.031	3413.31
565.127	3468.31
565.224	3582.31
565.32	3658.31
565.417	3595.31
565.513	3759.31
565.61	3841.31
565.706	3981.31
565.803	3942.31
565.899	3963.31
565.996	4089.31
566.092	4192.31
566.189	4311.31
566.285	4433.31
566.382	4593.31
566.478	4785.31
566.574	4846.31
566.671	4868.31
566.767	4957.31
566.864	4830.31
566.96	4862.31
567.056	4965.31
567.153	5143.31
567.249	5095.31
567.345	5189.31
567.442	5453.31
567.538	5491.31
567.634	5473.31
567.731	5572.31
567.827	5602.31
567.923	5458.31
568.019	5250.31
568.116	5032.31
568.212	4881.31
568.308	4868.31
568.404	4513.31
568.501	4409.31
568.597	4320.31
568.693	4166.31
568.789	4675.31
568.885	3910.31
568.982	3965.31
569.078	3686.31
569.174	3735.31
569.27	3527.31
569.366	3557.31
569.462	3489.31
569.558	3470.31
569.655	3403.31
569.751	3260.31
569.847	3276.31
569.943	3249.31
570.039	3198.31
570.135	3647.31
570.231	3227.31
570.327	3319.31
570.423	3273.31
570.519	3415.31
570.615	3104.31
570.711	3260.31
570.807	3260.31
570.903	3163.31
570.999	3126.31
571.095	3210.31
571.191	3218.31
571.287	3109.31
571.383	3177.31
571.479	3055.31
571.574	3153.31
571.67	2895.31
571.766	3135.31
571.862	2855.31
571.958	2831.31
572.054	2931.31
572.15	2758.31
572.246	2752.31
572.341	2899.31
572.437	2765.31
572.533	2724.31
572.629	2720.31
572.725	2743.31
572.82	2667.31
572.916	2777.31
573.012	2713.31
573.108	2673.31
573.203	2595.31
573.299	2641.31
573.395	2531.31
573.49	2491.31
573.586	2575.31
573.682	2567.31
573.778	2668.31
573.873	2515.31
573.969	2510.31
574.065	2492.31
574.16	2503.31
574.256	2546.31
574.351	2546.31
574.447	2479.31
574.543	2514.31
574.638	2573.31
574.734	2524.31
574.829	2709.31
574.925	2455.31
575.02	2442.31
575.116	2453.31
575.212	2490.31
575.307	2472.31
575.403	2358.31
575.498	2466.31
575.594	2356.31
575.689	2483.31
575.784	2420.31
575.88	2347.31
575.975	2406.31
576.071	2345.31
576.166	2238.31
576.262	2296.31
576.357	2237.31
576.452	2515.31
576.548	2290.31
576.643	2280.31
576.739	2320.31
576.834	2252.31
576.929	2303.31
577.025	2942.31
577.12	2194.31
577.215	2203.31
577.311	2332.31
577.406	2292.31
577.501	2329.31
577.597	2088.31
577.692	2281.31
577.787	2244.31
577.882	2137.31
577.978	2202.31
578.073	2111.31
578.168	2064.31
578.263	2110.31
578.358	2082.31
578.454	2006.31
578.549	2066.31
578.644	1984.31
578.739	2124.31
578.834	2010.31
578.929	2013.31
579.025	1939.31
579.12	2069.31
579.215	2306.31
579.31	2090.31
579.405	1954.31
579.5	2054.31
579.595	1989.31
579.69	1905.31
579.785	1985.31
579.88	1931.31
579.975	1974.31
580.07	1906.31
580.165	1930.31
580.26	2003.31
580.355	1925.31
580.45	1931.31
580.545	1857.31
580.64	1877.31
580.735	2038.31
580.83	1958.31
580.925	1813.31
581.02	1805.31
581.115	1821.31
581.21	1784.31
581.305	1892.31
581.4	1857.31
581.495	1857.31
581.589	1824.31
581.684	1777.31
581.779	1844.31
581.874	1846.31
581.969	1946.31
582.064	1743.31
582.158	1728.31
582.253	1772.31
582.348	1757.31
582.443	1767.31
582.537	1801.31
582.632	1985.31
582.727	1762.31
582.822	1698.31
582.916	1744.31
583.011	1704.31
583.106	1777.31
583.201	1716.31
583.295	1721.31
583.39	1632.31
583.485	1704.31
583.579	3526.31
583.674	1885.31
583.769	1990.31
583.863	1690.31
583.958	1667.31
584.052	1572.31
584.147	1697.31
584.242	1539.31
584.336	1681.31
584.431	1844.31
584.525	1644.31
584.62	1807.31
584.714	1797.31
584.809	1680.31
584.903	1689.31
584.998	1730.31
585.092	1592.31
585.187	1564.31
585.281	1551.31
585.376	1694.31
585.47	1689.31
585.565	1643.31
585.659	1549.31
585.754	1559.31
585.848	1587.31
585.942	1606.31
586.037	1547.31
586.131	3852.31
586.226	1789.31
586.32	1673.31
586.414	1441.31
586.509	1592.31
586.603	1589.31
586.697	1569.31
586.792	1497.31
586.886	1496.31
586.98	1588.31
587.075	1471.31
587.169	1564.31
587.263	1637.31
587.357	1609.31
587.452	1505.31
587.546	1637.31
587.64	1473.31
587.734	1510.31
587.829	1592.31
587.923	1457.31
588.017	1533.31
588.111	1530.31
588.205	1569.31
588.3	1494.31
588.394	1494.31
588.488	1472.31
588.582	1581.31
588.676	1748.31
588.77	2143.31
588.864	3460.31
588.958	3562.31
589.052	2868.31
589.147	2309.31
589.241	1898.31
589.335	1956.31
589.429	2531.31
589.523	2986.31
589.617	2713.31
589.711	2136.31
589.805	1815.31
589.899	1741.31
589.993	1569.31
590.087	1422.31
590.181	1472.31
590.275	1551.31
590.369	1431.31
590.462	1391.31
590.556	1451.31
590.65	1354.31
590.744	1411.31
590.838	1472.31
590.932	1464.31
591.026	1533.31
591.12	1651.31
591.214	1478.31
591.307	1480.31
591.401	1525.31
591.495	1564.31
591.589	1469.31
591.683	1523.31
591.777	1581.31
591.87	1848.31
591.964	1561.31
592.058	1522.31
592.152	1583.31
592.245	1507.31
592.339	1675.31
592.433	1698.31
592.527	1617.31
592.62	1583.31
592.714	1626.31
592.808	1684.31
592.901	1647.31
592.995	1619.31
593.089	1930.31
593.182	1724.31
593.276	1687.31
593.37	1577.31
593.463	1597.31
593.557	1671.31
593.65	1636.31
593.744	1619.31
593.837	1797.31
593.931	1659.31
594.025	4825.31
594.118	1905.31
594.212	1646.31
594.305	1544.31
594.399	1687.31
594.492	1972.31
594.586	1569.31
594.679	1481.31
594.773	1512.31
594.866	1534.31
594.96	1499.31
595.053	1397.31
595.146	1416.31
595.24	1334.31
595.333	1317.31
595.427	1345.31
595.52	1319.31
595.614	1481.31
595.707	1395.31
595.8	1277.31
595.894	1295.31
595.987	1329.31
596.08	1212.31
596.174	1628.31
596.267	1344.31
596.36	1359.31
596.454	1364.31
596.547	1329.31
596.64	1211.31
596.733	1145.31
596.827	1318.31
596.92	1228.31
597.013	1116.31
597.106	1097.31
597.2	1173.31
597.293	1073.31
597.386	1346.31
597.479	1290.31
597.572	1206.31
597.666	1128.31
597.759	1104.31
597.852	1229.31
597.945	1069.31
598.038	1139.31
598.131	1163.31
598.224	1100.31
598.317	1191.31
598.411	1167.31
598.504	1069.31
598.597	1133.31
598.69	1120.31
598.783	1087.31
598.876	1130.31
598.969	1156.31
599.062	1134.31
599.155	1144.31
599.248	1057.31
599.341	1161.31
599.434	1037.31
599.527	1144.31
599.62	1049.31
599.713	1061.31
599.806	1169.31
599.899	1206.31
599.991	1009.31
600.084	1236.31
600.177	1017.31
600.27	1085.31
600.363	1229.31
600.456	1037.31
600.549	1145.31
600.642	1017.31
600.734	1038.31
600.827	1097.31
600.92	1110.31
601.013	1014.31
601.106	1127.31
601.199	1015.31
601.291	1008.31
601.384	1041.31
601.477	1266.31
601.57	1085.31
601.662	1017.31
601.755	1029.31
601.848	1061.31
601.94	989.31
602.033	1155.31
602.126	1057.31
602.219	1022.31
602.311	1149.31
602.404	1030.31
602.497	994.31
602.589	1009.31
602.682	1053.31
602.774	1031.31
602.867	1023.31
602.96	1041.31
603.052	1007.31
603.145	1012.31
603.237	1047.31
603.33	1019.31
603.422	1056.31
603.515	1016.31
603.608	1011.31
603.7	1016.31
603.793	1028.31
603.885	1064.31
603.978	984.31
604.07	928.31
604.163	1020.31
604.255	1037.31
604.347	925.31
604.44	961.31
604.532	955.31
604.625	941.31
604.717	1021.31
604.81	988.31
604.902	960.31
604.994	935.31
605.087	946.31
605.179	937.31
605.271	967.31
605.364	999.31
605.456	1034.31
605.548	951.31
605.641	1051.31
605.733	937.31
605.825	1005.31
605.918	957.31
606.01	1098.31
606.102	1421.31
606.194	992.31
606.287	1098.31
606.379	912.31
606.471	960.31
606.563	1039.31
606.655	1002.31
606.748	997.31
606.84	1004.31
606.932	969.31
607.024	958.31
607.116	899.31
607.208	926.31
607.301	957.31
607.393	915.31
607.485	987.31
607.577	982.31
607.669	1049.31
607.761	1042.31
607.853	1214.31
607.945	906.31
608.037	891.31
608.129	911.31
608.221	912.31
608.313	949.31
608.405	988.31
608.497	965.31
608.589	920.31
608.681	962.31
608.773	1025.31
608.865	973.31
608.957	958.31
609.049	906.31
609.141	987.31
609.233	941.31
609.325	851.31
609.417	905.31
609.509	1042.31
609.601	1074.31
609.693	985.31
609.784	920.31
609.876	923.31
609.968	937.31
610.06	3027.31
610.152	1176.31
610.244	1170.31
610.335	909.31
610.427	993.31
610.519	855.31
610.611	867.31
610.702	894.31
610.794	879.31
610.886	918.31
610.978	899.31
611.069	1347.31
611.161	885.31
611.253	958.31
611.344	821.31
611.436	779.31
611.528	872.31
611.62	816.31
611.711	781.31
611.803	795.31
611.894	779.31
611.986	760.31
612.078	772.31
612.169	829.31
612.261	758.31
612.352	693.31
612.444	678.31
612.536	847.31
612.627	724.31
612.719	641.31
612.81	666.31
612.902	625.31
612.993	679.31
613.085	728.31
613.176	546.31
613.268	636.31
613.359	608.31
613.451	632.31
613.542	573.31
613.634	590.31
613.725	690.31
613.816	677.31
613.908	541.31
613.999	592.31
614.091	468.31
614.182	461.31
614.273	579.31
614.365	468.31
614.456	423.31
614.547	462.31
614.639	428.31
614.73	446.31
614.821	517.31
614.913	406.31
615.004	308.31
615.095	372.31
615.187	424.31
