Data from 28g_HRC06701__54__420.txt Node

Date: Thu Apr 18 02:21:25 CDT 2024
User: Estudiantes 2
Spectrometer: HR+C0670
Trigger mode: 4
Integration Time (sec): 1.000000E0
Scans to average: 1
Electric dark correction enabled: true
Nonlinearity correction enabled: false
Boxcar width: 0
XAxis mode: Wavelengths
Number of Pixels in Spectrum: 2048
>>>>>Begin Spectral Data<<<<<
407.81	-144.38
407.921	-144.38
408.032	-144.38
408.143	-156.38
408.254	-78.38
408.365	27.62
408.476	282.62
408.587	10.62
408.699	-18.38
408.81	-43.38
408.921	-53.38
409.032	-35.38
409.143	40.62
409.254	28.62
409.365	128.62
409.476	-69.38
409.587	-14.38
409.698	94.62
409.809	76.62
409.92	-51.38
410.031	-24.38
410.142	57.62
410.253	-15.38
410.364	49.62
410.475	217.62
410.585	1146.62
410.696	1292.62
410.807	1255.62
410.918	1195.62
411.029	1284.62
411.14	1305.62
411.251	1243.62
411.362	1301.62
411.472	1312.62
411.583	1304.62
411.694	1345.62
411.805	1263.62
411.916	1362.62
412.026	1351.62
412.137	1322.62
412.248	1338.62
412.359	1229.62
412.47	1222.62
412.58	1228.62
412.691	1280.62
412.802	1281.62
412.912	1222.62
413.023	1256.62
413.134	1252.62
413.245	1370.62
413.355	1309.62
413.466	1210.62
413.577	1228.62
413.687	1367.62
413.798	1149.62
413.909	1298.62
414.019	1310.62
414.13	1243.62
414.24	1195.62
414.351	1343.62
414.462	1462.62
414.572	1311.62
414.683	1351.62
414.793	1299.62
414.904	1612.62
415.014	1288.62
415.125	1281.62
415.235	1273.62
415.346	1435.62
415.456	1479.62
415.567	1302.62
415.677	1291.62
415.788	1406.62
415.898	1268.62
416.009	1223.62
416.119	1325.62
416.23	1344.62
416.34	1182.62
416.45	1276.62
416.561	2193.62
416.671	1368.62
416.782	1228.62
416.892	1336.62
417.002	1369.62
417.113	1428.62
417.223	1380.62
417.333	1290.62
417.444	1274.62
417.554	1471.62
417.664	1454.62
417.775	1254.62
417.885	1368.62
417.995	1430.62
418.106	1555.62
418.216	1446.62
418.326	1582.62
418.436	1463.62
418.547	1462.62
418.657	1444.62
418.767	1552.62
418.877	1527.62
418.987	1514.62
419.098	1543.62
419.208	1521.62
419.318	1597.62
419.428	1634.62
419.538	1494.62
419.648	1592.62
419.759	1619.62
419.869	1533.62
419.979	1482.62
420.089	1603.62
420.199	1534.62
420.309	1541.62
420.419	1503.62
420.529	1566.62
420.639	2029.62
420.749	1632.62
420.859	1596.62
420.969	1564.62
421.079	1810.62
421.189	1628.62
421.299	1556.62
421.409	1533.62
421.519	1703.62
421.629	1703.62
421.739	1597.62
421.849	1571.62
421.959	1566.62
422.069	1622.62
422.179	1609.62
422.289	1663.62
422.399	1758.62
422.509	1795.62
422.619	4370.62
422.729	1964.62
422.838	1680.62
422.948	1801.62
423.058	1750.62
423.168	1766.62
423.278	1758.62
423.388	1952.62
423.498	1955.62
423.607	1900.62
423.717	2194.62
423.827	2154.62
423.937	1962.62
424.046	2002.62
424.156	2028.62
424.266	1915.62
424.376	2162.62
424.485	2127.62
424.595	1982.62
424.705	1934.62
424.815	1990.62
424.924	2357.62
425.034	1972.62
425.144	1886.62
425.253	1921.62
425.363	1970.62
425.473	2079.62
425.582	1857.62
425.692	1891.62
425.801	1955.62
425.911	2100.62
426.021	2024.62
426.13	2108.62
426.24	2160.62
426.349	2085.62
426.459	2009.62
426.568	2023.62
426.678	2129.62
426.787	2045.62
426.897	2051.62
427.006	2008.62
427.116	2069.62
427.225	2000.62
427.335	2146.62
427.444	2043.62
427.554	2159.62
427.663	2131.62
427.773	2077.62
427.882	2118.62
427.992	2136.62
428.101	2099.62
428.21	2142.62
428.32	2194.62
428.429	2071.62
428.539	2449.62
428.648	2143.62
428.757	2265.62
428.867	2202.62
428.976	2357.62
429.085	2307.62
429.195	2202.62
429.304	2209.62
429.413	2302.62
429.523	2255.62
429.632	2254.62
429.741	2314.62
429.85	2263.62
429.96	2330.62
430.069	2327.62
430.178	2346.62
430.287	2628.62
430.397	2382.62
430.506	2358.62
430.615	2319.62
430.724	2425.62
430.833	2443.62
430.943	2410.62
431.052	2421.62
431.161	2497.62
431.27	2471.62
431.379	2451.62
431.488	2696.62
431.597	2555.62
431.706	2659.62
431.816	2642.62
431.925	2599.62
432.034	2483.62
432.143	2619.62
432.252	2579.62
432.361	2689.62
432.47	2586.62
432.579	2582.62
432.688	2616.62
432.797	2534.62
432.906	2610.62
433.015	2622.62
433.124	3007.62
433.233	2702.62
433.342	2734.62
433.451	2627.62
433.56	2618.62
433.669	2693.62
433.778	2611.62
433.886	2768.62
433.995	2793.62
434.104	2897.62
434.213	2813.62
434.322	2850.62
434.431	3017.62
434.54	2994.62
434.649	3275.62
434.757	3073.62
434.866	3014.62
434.975	3071.62
435.084	3024.62
435.193	2861.62
435.301	3049.62
435.41	3105.62
435.519	3176.62
435.628	2611.62
435.737	2567.62
435.845	2570.62
435.954	2432.62
436.063	2498.62
436.171	2558.62
436.28	2558.62
436.389	2672.62
436.498	2611.62
436.606	2539.62
436.715	2696.62
436.823	2485.62
436.932	2426.62
437.041	2388.62
437.149	2497.62
437.258	2410.62
437.367	2331.62
437.475	2345.62
437.584	2624.62
437.692	2301.62
437.801	4019.62
437.91	2463.62
438.018	2280.62
438.127	2299.62
438.235	2400.62
438.344	2336.62
438.452	2292.62
438.561	2339.62
438.669	2307.62
438.778	2193.62
438.886	2206.62
438.995	2231.62
439.103	2274.62
439.212	2316.62
439.32	2316.62
439.428	2351.62
439.537	2375.62
439.645	2445.62
439.754	2364.62
439.862	2282.62
439.97	2368.62
440.079	2384.62
440.187	2326.62
440.295	2535.62
440.404	2456.62
440.512	2310.62
440.62	2447.62
440.729	2449.62
440.837	2524.62
440.945	3233.62
441.054	2688.62
441.162	2559.62
441.27	2750.62
441.378	2778.62
441.487	2839.62
441.595	3054.62
441.703	2875.62
441.811	2765.62
441.92	2612.62
442.028	2504.62
442.136	2711.62
442.244	2577.62
442.352	2651.62
442.461	2474.62
442.569	2516.62
442.677	2569.62
442.785	2636.62
442.893	2562.62
443.001	2497.62
443.109	2518.62
443.217	2542.62
443.325	2571.62
443.434	3175.62
443.542	2929.62
443.65	2673.62
443.758	2785.62
443.866	2754.62
443.974	3090.62
444.082	2875.62
444.19	3010.62
444.298	3050.62
444.406	3251.62
444.514	3291.62
444.622	3357.62
444.73	3264.62
444.838	3183.62
444.946	3177.62
445.054	2865.62
445.161	2846.62
445.269	2761.62
445.377	2748.62
445.485	2655.62
445.593	2642.62
445.701	2850.62
445.809	2626.62
445.917	2592.62
446.025	2634.62
446.132	2653.62
446.24	2636.62
446.348	2612.62
446.456	2438.62
446.564	2559.62
446.671	2609.62
446.779	2535.62
446.887	2438.62
446.995	2475.62
447.102	2544.62
447.21	2515.62
447.318	2426.62
447.426	2438.62
447.533	2720.62
447.641	3732.62
447.749	2612.62
447.856	2452.62
447.964	2452.62
448.072	2679.62
448.179	2495.62
448.287	2475.62
448.395	2630.62
448.502	2409.62
448.61	2505.62
448.718	2444.62
448.825	2538.62
448.933	2443.62
449.04	2439.62
449.148	2569.62
449.256	2509.62
449.363	2552.62
449.471	2596.62
449.578	2617.62
449.686	2565.62
449.793	2756.62
449.901	2561.62
450.008	2559.62
450.116	2720.62
450.223	2690.62
450.331	2749.62
450.438	2797.62
450.546	2858.62
450.653	2896.62
450.76	2883.62
450.868	2901.62
450.975	3112.62
451.083	2874.62
451.19	3027.62
451.297	3017.62
451.405	2984.62
451.512	2911.62
451.619	3154.62
451.727	3003.62
451.834	2921.62
451.941	3022.62
452.049	2929.62
452.156	2975.62
452.263	3084.62
452.371	3087.62
452.478	3073.62
452.585	3163.62
452.692	3067.62
452.8	3098.62
452.907	3173.62
453.014	3185.62
453.121	3134.62
453.229	3159.62
453.336	3204.62
453.443	3239.62
453.55	3090.62
453.657	3160.62
453.765	3250.62
453.872	3157.62
453.979	3185.62
454.086	3198.62
454.193	3242.62
454.3	3156.62
454.407	3424.62
454.514	3401.62
454.621	3159.62
454.729	3271.62
454.836	3233.62
454.943	3278.62
455.05	3346.62
455.157	3403.62
455.264	3267.62
455.371	3352.62
455.478	3338.62
455.585	4760.62
455.692	3477.62
455.799	3635.62
455.906	3359.62
456.013	3349.62
456.12	3434.62
456.227	3424.62
456.334	3538.62
456.44	3591.62
456.547	3591.62
456.654	3388.62
456.761	3532.62
456.868	3660.62
456.975	3550.62
457.082	3500.62
457.189	3514.62
457.296	3530.62
457.402	3577.62
457.509	3558.62
457.616	3672.62
457.723	3915.62
457.83	3725.62
457.936	3730.62
458.043	4079.62
458.15	3813.62
458.257	3989.62
458.363	3948.62
458.47	3965.62
458.577	4193.62
458.684	4098.62
458.79	4386.62
458.897	4450.62
459.004	4491.62
459.11	4412.62
459.217	4546.62
459.324	4586.62
459.43	4838.62
459.537	4967.62
459.644	4988.62
459.75	4911.62
459.857	5338.62
459.964	5310.62
460.07	5215.62
460.177	5344.62
460.283	5509.62
460.39	5537.62
460.496	5426.62
460.603	5472.62
460.71	5323.62
460.816	5294.62
460.923	5260.62
461.029	5233.62
461.136	5277.62
461.242	5196.62
461.349	5394.62
461.455	5314.62
461.562	5520.62
461.668	5509.62
461.774	5451.62
461.881	5640.62
461.987	5593.62
462.094	5785.62
462.2	5864.62
462.307	5897.62
462.413	5931.62
462.519	6041.62
462.626	6582.62
462.732	6676.62
462.838	7159.62
462.945	7459.62
463.051	7415.62
463.157	7047.62
463.264	6669.62
463.37	6438.62
463.476	6279.62
463.583	6061.62
463.689	6072.62
463.795	6128.62
463.901	6131.62
464.008	6343.62
464.114	6312.62
464.22	6233.62
464.326	6168.62
464.433	5872.62
464.539	5719.62
464.645	5656.62
464.751	5755.62
464.857	5482.62
464.963	5045.62
465.07	5042.62
465.176	4883.62
465.282	4587.62
465.388	4613.62
465.494	4390.62
465.6	4218.62
465.706	4144.62
465.812	4073.62
465.918	4263.62
466.024	4107.62
466.131	4075.62
466.237	3942.62
466.343	3714.62
466.449	3673.62
466.555	3715.62
466.661	3513.62
466.767	3628.62
466.873	3668.62
466.979	3735.62
467.085	3611.62
467.191	3672.62
467.296	3668.62
467.402	3602.62
467.508	3622.62
467.614	3706.62
467.72	3460.62
467.826	3434.62
467.932	3423.62
468.038	3344.62
468.144	3309.62
468.25	3306.62
468.355	3202.62
468.461	3306.62
468.567	3310.62
468.673	3247.62
468.779	3186.62
468.885	3221.62
468.99	3244.62
469.096	3216.62
469.202	3390.62
469.308	3396.62
469.413	3393.62
469.519	3400.62
469.625	3449.62
469.731	3431.62
469.836	3420.62
469.942	3643.62
470.048	3424.62
470.153	3407.62
470.259	3528.62
470.365	3640.62
470.47	3489.62
470.576	3439.62
470.682	3492.62
470.787	3302.62
470.893	3242.62
470.999	3275.62
471.104	3271.62
471.21	3079.62
471.315	3036.62
471.421	2996.62
471.527	3203.62
471.632	3096.62
471.738	3130.62
471.843	2954.62
471.949	3075.62
472.054	3010.62
472.16	2838.62
472.265	2815.62
472.371	2886.62
472.476	2830.62
472.582	2910.62
472.687	2813.62
472.793	2702.62
472.898	2795.62
473.003	2735.62
473.109	2663.62
473.214	2614.62
473.32	2762.62
473.425	2855.62
473.53	2713.62
473.636	2627.62
473.741	2711.62
473.847	2627.62
473.952	2674.62
474.057	2811.62
474.163	2782.62
474.268	2610.62
474.373	2767.62
474.478	2641.62
474.584	2600.62
474.689	2664.62
474.794	2738.62
474.9	2992.62
475.005	2706.62
475.11	2961.62
475.215	2602.62
475.321	2657.62
475.426	2921.62
475.531	2861.62
475.636	2654.62
475.741	2691.62
475.846	2875.62
475.952	2982.62
476.057	2827.62
476.162	2893.62
476.267	2951.62
476.372	3134.62
476.477	2811.62
476.582	2877.62
476.687	2736.62
476.793	2935.62
476.898	2822.62
477.003	2887.62
477.108	2886.62
477.213	2886.62
477.318	3006.62
477.423	3056.62
477.528	3232.62
477.633	3129.62
477.738	3135.62
477.843	3146.62
477.948	3176.62
478.053	3180.62
478.158	3200.62
478.263	3323.62
478.368	3234.62
478.473	3435.62
478.578	3448.62
478.682	3335.62
478.787	3496.62
478.892	3479.62
478.997	3473.62
479.102	3420.62
479.207	3439.62
479.312	3559.62
479.417	3418.62
479.521	3475.62
479.626	3595.62
479.731	3527.62
479.836	3505.62
479.941	3805.62
480.045	3818.62
480.15	3949.62
480.255	3937.62
480.36	3818.62
480.465	3826.62
480.569	4049.62
480.674	3757.62
480.779	3484.62
480.883	3610.62
480.988	3613.62
481.093	3496.62
481.197	3501.62
481.302	3557.62
481.407	3564.62
481.511	4898.62
481.616	3680.62
481.721	3539.62
481.825	3631.62
481.93	3498.62
482.035	3523.62
482.139	3499.62
482.244	3519.62
482.348	3528.62
482.453	3567.62
482.557	3692.62
482.662	3657.62
482.767	3583.62
482.871	3530.62
482.976	3702.62
483.08	3793.62
483.185	3866.62
483.289	3746.62
483.394	3698.62
483.498	3773.62
483.603	3785.62
483.707	3859.62
483.811	3886.62
483.916	3926.62
484.02	3924.62
484.125	4026.62
484.229	4051.62
484.333	4195.62
484.438	4009.62
484.542	3995.62
484.647	4193.62
484.751	4230.62
484.855	4160.62
484.96	4290.62
485.064	4372.62
485.168	4449.62
485.273	4250.62
485.377	4379.62
485.481	4610.62
485.585	4383.62
485.69	4433.62
485.794	4488.62
485.898	4557.62
486.002	4536.62
486.107	4476.62
486.211	4457.62
486.315	4582.62
486.419	4655.62
486.524	4617.62
486.628	4484.62
486.732	4519.62
486.836	4495.62
486.94	4544.62
487.044	4576.62
487.148	4514.62
487.253	4476.62
487.357	4578.62
487.461	4716.62
487.565	4573.62
487.669	4509.62
487.773	4491.62
487.877	4547.62
487.981	4557.62
488.085	4658.62
488.189	4545.62
488.293	4666.62
488.397	5088.62
488.501	4571.62
488.605	4536.62
488.709	4643.62
488.813	4526.62
488.917	4460.62
489.021	4584.62
489.125	4813.62
489.229	4498.62
489.333	4760.62
489.437	4658.62
489.541	4506.62
489.645	4569.62
489.749	4672.62
489.853	4674.62
489.956	4648.62
490.06	4690.62
490.164	4621.62
490.268	4606.62
490.372	4698.62
490.476	4597.62
490.579	4604.62
490.683	5257.62
490.787	4799.62
490.891	4614.62
490.995	4647.62
491.098	4678.62
491.202	4563.62
491.306	4711.62
491.41	4761.62
491.513	4586.62
491.617	4636.62
491.721	4833.62
491.824	4780.62
491.928	4626.62
492.032	4931.62
492.136	4697.62
492.239	4560.62
492.343	4715.62
492.446	5254.62
492.55	4697.62
492.654	4585.62
492.757	4633.62
492.861	4649.62
492.965	4653.62
493.068	4684.62
493.172	4721.62
493.275	4618.62
493.379	4670.62
493.482	4781.62
493.586	4835.62
493.689	4954.62
493.793	4804.62
493.896	4862.62
494	4759.62
494.103	4886.62
494.207	5023.62
494.31	5119.62
494.414	4883.62
494.517	4799.62
494.621	4634.62
494.724	4616.62
494.828	4707.62
494.931	4575.62
495.034	4562.62
495.138	4849.62
495.241	4633.62
495.345	5345.62
495.448	4803.62
495.551	4554.62
495.655	4591.62
495.758	4604.62
495.861	4557.62
495.965	4511.62
496.068	4712.62
496.171	4763.62
496.274	4616.62
496.378	4650.62
496.481	4716.62
496.584	4730.62
496.687	4727.62
496.791	4832.62
496.894	4877.62
496.997	4804.62
497.1	4817.62
497.204	4886.62
497.307	4855.62
497.41	5124.62
497.513	5282.62
497.616	4982.62
497.719	5035.62
497.823	5223.62
497.926	5227.62
498.029	5387.62
498.132	5531.62
498.235	5561.62
498.338	5866.62
498.441	6095.62
498.544	6217.62
498.647	6319.62
498.75	6710.62
498.853	7048.62
498.956	7075.62
499.059	7566.62
499.163	7721.62
499.266	8094.62
499.369	8393.62
499.471	8883.62
499.574	9394.62
499.677	9814.62
499.78	10383.62
499.883	11263.62
499.986	12076.62
500.089	12403.62
500.192	12888.62
500.295	12860.62
500.398	12783.62
500.501	12382.62
500.604	11770.62
500.707	11222.62
500.809	10632.62
500.912	10087.62
501.015	9459.62
501.118	8873.62
501.221	8330.62
501.324	7722.62
501.426	7487.62
501.529	7091.62
501.632	6723.62
501.735	6444.62
501.837	6218.62
501.94	6038.62
502.043	5863.62
502.146	5767.62
502.248	5595.62
502.351	5450.62
502.454	5382.62
502.557	5185.62
502.659	5171.62
502.762	4892.62
502.865	4719.62
502.967	4570.62
503.07	4604.62
503.173	4644.62
503.275	4483.62
503.378	4452.62
503.48	4455.62
503.583	4464.62
503.686	4315.62
503.788	4667.62
503.891	4409.62
503.993	4559.62
504.096	4407.62
504.198	4513.62
504.301	4506.62
504.403	4522.62
504.506	4561.62
504.608	4302.62
504.711	4203.62
504.813	4152.62
504.916	3972.62
505.018	3759.62
505.121	3670.62
505.223	3800.62
505.326	3662.62
505.428	3657.62
505.531	3597.62
505.633	3532.62
505.735	3446.62
505.838	3475.62
505.94	3357.62
506.042	3361.62
506.145	3328.62
506.247	3417.62
506.35	3154.62
506.452	3406.62
506.554	3337.62
506.656	3354.62
506.759	3205.62
506.861	3304.62
506.963	3185.62
507.066	3238.62
507.168	3421.62
507.27	3114.62
507.372	3143.62
507.475	3198.62
507.577	3190.62
507.679	3075.62
507.781	3058.62
507.883	3185.62
507.986	3032.62
508.088	3028.62
508.19	3169.62
508.292	3064.62
508.394	3007.62
508.496	2998.62
508.598	2959.62
508.701	2978.62
508.803	3046.62
508.905	2868.62
509.007	2910.62
509.109	3029.62
509.211	3091.62
509.313	2903.62
509.415	2922.62
509.517	3019.62
509.619	2892.62
509.721	3048.62
509.823	2908.62
509.925	3111.62
510.027	2944.62
510.129	2987.62
510.231	2960.62
510.333	2842.62
510.435	2986.62
510.537	3037.62
510.639	3030.62
510.741	2929.62
510.843	3042.62
510.945	2868.62
511.047	2941.62
511.148	2959.62
511.25	2948.62
511.352	2962.62
511.454	2888.62
511.556	3047.62
511.658	2952.62
511.76	3041.62
511.861	3097.62
511.963	2926.62
512.065	2837.62
512.167	2962.62
512.268	3144.62
512.37	3026.62
512.472	3062.62
512.574	3062.62
512.676	3054.62
512.777	3019.62
512.879	2965.62
512.981	2946.62
513.082	2964.62
513.184	2976.62
513.286	3425.62
513.387	3089.62
513.489	3245.62
513.591	3065.62
513.692	3122.62
513.794	3062.62
513.896	2938.62
513.997	3007.62
514.099	3048.62
514.2	3145.62
514.302	3076.62
514.404	3050.62
514.505	3083.62
514.607	3183.62
514.708	3150.62
514.81	3285.62
514.911	3244.62
515.013	3289.62
515.114	3316.62
515.216	3186.62
515.317	3216.62
515.419	3309.62
515.52	3367.62
515.622	3243.62
515.723	3386.62
515.825	3603.62
515.926	3535.62
516.027	3469.62
516.129	3573.62
516.23	3575.62
516.332	3740.62
516.433	3840.62
516.534	3858.62
516.636	3881.62
516.737	3983.62
516.838	5218.62
516.94	4434.62
517.041	4336.62
517.142	4689.62
517.244	4654.62
517.345	4735.62
517.446	4747.62
517.547	4884.62
517.649	4729.62
517.75	4734.62
517.851	4625.62
517.952	4937.62
518.054	4653.62
518.155	4584.62
518.256	4324.62
518.357	4374.62
518.458	4182.62
518.56	4045.62
518.661	4065.62
518.762	4037.62
518.863	4048.62
518.964	3916.62
519.065	3821.62
519.166	3786.62
519.268	3616.62
519.369	4021.62
519.47	3762.62
519.571	3682.62
519.672	3535.62
519.773	3580.62
519.874	3583.62
519.975	3614.62
520.076	3667.62
520.177	3613.62
520.278	3520.62
520.379	3691.62
520.48	3550.62
520.581	3467.62
520.682	3513.62
520.783	3546.62
520.884	3488.62
520.985	3509.62
521.086	3550.62
521.187	3471.62
521.288	3501.62
521.389	3485.62
521.489	3478.62
521.59	3342.62
521.691	3481.62
521.792	3412.62
521.893	3531.62
521.994	3597.62
522.095	3458.62
522.195	3503.62
522.296	3583.62
522.397	3633.62
522.498	3468.62
522.599	3313.62
522.699	3490.62
522.8	3453.62
522.901	3529.62
523.002	3487.62
523.102	3610.62
523.203	3451.62
523.304	3624.62
523.405	3475.62
523.505	3406.62
523.606	3495.62
523.707	3494.62
523.807	3451.62
523.908	3472.62
524.009	3670.62
524.109	3551.62
524.21	3446.62
524.31	3570.62
524.411	3644.62
524.512	3619.62
524.612	3603.62
524.713	3747.62
524.813	3548.62
524.914	3734.62
525.014	8741.62
525.115	3884.62
525.216	3469.62
525.316	3643.62
525.417	3545.62
525.517	3523.62
525.618	3548.62
525.718	3527.62
525.819	3472.62
525.919	3623.62
526.019	3577.62
526.12	3646.62
526.22	3345.62
526.321	3581.62
526.421	3462.62
526.522	3456.62
526.622	3500.62
526.722	3505.62
526.823	3564.62
526.923	3503.62
527.023	3595.62
527.124	3441.62
527.224	3513.62
527.324	3501.62
527.425	3614.62
527.525	3494.62
527.625	3500.62
527.726	3509.62
527.826	3651.62
527.926	3595.62
528.026	3614.62
528.127	3524.62
528.227	3613.62
528.327	3604.62
528.427	3574.62
528.528	3627.62
528.628	3677.62
528.728	3543.62
528.828	3552.62
528.928	3638.62
529.029	3546.62
529.129	3530.62
529.229	3592.62
529.329	3536.62
529.429	3628.62
529.529	3659.62
529.629	3558.62
529.729	3498.62
529.829	3700.62
529.93	3572.62
530.03	3655.62
530.13	3515.62
530.23	3602.62
530.33	3621.62
530.43	3534.62
530.53	3655.62
530.63	3540.62
530.73	3389.62
530.83	3377.62
530.93	3452.62
531.03	3390.62
531.13	3562.62
531.23	3414.62
531.33	3450.62
531.429	3490.62
531.529	3707.62
531.629	3484.62
531.729	3417.62
531.829	3390.62
531.929	3430.62
532.029	3458.62
532.129	3490.62
532.229	3534.62
532.328	3436.62
532.428	3358.62
532.528	3370.62
532.628	3323.62
532.728	3416.62
532.827	3406.62
532.927	3391.62
533.027	3321.62
533.127	3518.62
533.227	3448.62
533.326	3407.62
533.426	3337.62
533.526	3531.62
533.625	3466.62
533.725	3603.62
533.825	3426.62
533.924	3215.62
534.024	3182.62
534.124	3289.62
534.223	3259.62
534.323	3629.62
534.423	3368.62
534.522	3137.62
534.622	3105.62
534.722	3195.62
534.821	3177.62
534.921	3111.62
535.02	3119.62
535.12	3250.62
535.219	3299.62
535.319	3190.62
535.419	3271.62
535.518	3039.62
535.618	3038.62
535.717	3188.62
535.817	2955.62
535.916	2909.62
536.016	3101.62
536.115	2979.62
536.215	2998.62
536.314	2992.62
536.413	2938.62
536.513	2901.62
536.612	2943.62
536.712	2924.62
536.811	2902.62
536.91	2884.62
537.01	2893.62
537.109	2959.62
537.209	2866.62
537.308	2834.62
537.407	2811.62
537.507	2789.62
537.606	2875.62
537.705	2954.62
537.805	2845.62
537.904	2747.62
538.003	2891.62
538.102	2955.62
538.202	2854.62
538.301	2922.62
538.4	2841.62
538.499	2851.62
538.599	2844.62
538.698	3047.62
538.797	2699.62
538.896	2827.62
538.995	2842.62
539.095	2710.62
539.194	2958.62
539.293	2754.62
539.392	2679.62
539.491	2761.62
539.59	2779.62
539.689	2826.62
539.789	2798.62
539.888	2611.62
539.987	2619.62
540.086	2642.62
540.185	2666.62
540.284	2754.62
540.383	2632.62
540.482	2606.62
540.581	2677.62
540.68	2666.62
540.779	2718.62
540.878	2664.62
540.977	2675.62
541.076	2650.62
541.175	2709.62
541.274	2908.62
541.373	2656.62
541.472	2679.62
541.571	2560.62
541.67	4044.62
541.769	2736.62
541.868	2623.62
541.966	2648.62
542.065	2654.62
542.164	2689.62
542.263	2573.62
542.362	2601.62
542.461	2633.62
542.56	2619.62
542.658	2585.62
542.757	2477.62
542.856	2572.62
542.955	2470.62
543.054	2465.62
543.152	2698.62
543.251	2584.62
543.35	2635.62
543.449	2551.62
543.547	2541.62
543.646	2520.62
543.745	2557.62
543.843	2637.62
543.942	2522.62
544.041	2537.62
544.14	2723.62
544.238	2539.62
544.337	2714.62
544.436	2694.62
544.534	2774.62
544.633	2594.62
544.731	2636.62
544.83	2596.62
544.929	2554.62
545.027	2666.62
545.126	2626.62
545.224	2667.62
545.323	2572.62
545.421	2692.62
545.52	2580.62
545.619	2630.62
545.717	2704.62
545.816	2702.62
545.914	2672.62
546.013	2924.62
546.111	2827.62
546.209	2619.62
546.308	2581.62
546.406	2559.62
546.505	2719.62
546.603	2631.62
546.702	2622.62
546.8	2656.62
546.899	2582.62
546.997	2674.62
547.095	2586.62
547.194	2687.62
547.292	2663.62
547.39	2700.62
547.489	2547.62
547.587	2948.62
547.685	2670.62
547.784	2830.62
547.882	2711.62
547.98	2650.62
548.079	2724.62
548.177	2618.62
548.275	2592.62
548.373	2778.62
548.472	2566.62
548.57	2633.62
548.668	2714.62
548.766	2486.62
548.864	2775.62
548.963	2710.62
549.061	2790.62
549.159	2614.62
549.257	2742.62
549.355	2659.62
549.454	2646.62
549.552	2768.62
549.65	2688.62
549.748	2603.62
549.846	2595.62
549.944	2578.62
550.042	2549.62
550.14	2560.62
550.238	2594.62
550.336	2505.62
550.434	2490.62
550.532	2534.62
550.631	2721.62
550.729	2543.62
550.827	2659.62
550.925	2507.62
551.023	2559.62
551.121	2514.62
551.218	2437.62
551.316	2435.62
551.414	2493.62
551.512	2449.62
551.61	2527.62
551.708	2635.62
551.806	2656.62
551.904	2536.62
552.002	2531.62
552.1	2603.62
552.198	2594.62
552.296	2833.62
552.393	2943.62
552.491	2983.62
552.589	2880.62
552.687	2951.62
552.785	2957.62
552.882	3036.62
552.98	3204.62
553.078	3088.62
553.176	3074.62
553.274	2922.62
553.371	3032.62
553.469	2969.62
553.567	2867.62
553.665	2821.62
553.762	3283.62
553.86	2898.62
553.958	2945.62
554.055	2889.62
554.153	2842.62
554.251	2754.62
554.348	2759.62
554.446	2634.62
554.544	2653.62
554.641	2945.62
554.739	2514.62
554.837	2583.62
554.934	2600.62
555.032	2593.62
555.129	2423.62
555.227	2735.62
555.324	6798.62
555.422	2841.62
555.519	2507.62
555.617	2555.62
555.715	2329.62
555.812	2760.62
555.91	2400.62
556.007	2490.62
556.105	2400.62
556.202	2427.62
556.299	2370.62
556.397	2379.62
556.494	2368.62
556.592	2395.62
556.689	2382.62
556.787	2333.62
556.884	2337.62
556.981	2346.62
557.079	2315.62
557.176	2390.62
557.273	2343.62
557.371	2416.62
557.468	2400.62
557.566	2407.62
557.663	2268.62
557.76	2330.62
557.857	2397.62
557.955	2375.62
558.052	2416.62
558.149	2555.62
558.247	2497.62
558.344	2335.62
558.441	2348.62
558.538	2360.62
558.636	2335.62
558.733	2408.62
558.83	2420.62
558.927	2461.62
559.024	2358.62
559.122	2299.62
559.219	2342.62
559.316	2466.62
559.413	2586.62
559.51	2302.62
559.607	2315.62
559.704	2430.62
559.801	2429.62
559.899	2322.62
559.996	2640.62
560.093	2386.62
560.19	2335.62
560.287	2488.62
560.384	2530.62
560.481	2395.62
560.578	2436.62
560.675	2441.62
560.772	2464.62
560.869	2384.62
560.966	2578.62
561.063	2413.62
561.16	2444.62
561.257	2477.62
561.354	2522.62
561.451	2443.62
561.548	2520.62
561.645	2676.62
561.742	2369.62
561.838	2386.62
561.935	2503.62
562.032	2443.62
562.129	2480.62
562.226	2517.62
562.323	2485.62
562.42	2526.62
562.516	2431.62
562.613	2481.62
562.71	2466.62
562.807	3259.62
562.904	2559.62
563	2462.62
563.097	2534.62
563.194	2552.62
563.291	2519.62
563.387	2539.62
563.484	2608.62
563.581	2605.62
563.678	2506.62
563.774	2938.62
563.871	2728.62
563.968	2651.62
564.064	2685.62
564.161	2695.62
564.258	2640.62
564.354	2765.62
564.451	2779.62
564.548	2798.62
564.644	2776.62
564.741	2841.62
564.837	2768.62
564.934	2875.62
565.031	2903.62
565.127	2939.62
565.224	2978.62
565.32	3153.62
565.417	3063.62
565.513	3171.62
565.61	3280.62
565.706	3455.62
565.803	3413.62
565.899	3476.62
565.996	3675.62
566.092	3713.62
566.189	3810.62
566.285	4021.62
566.382	4272.62
566.478	4450.62
566.574	4646.62
566.671	4562.62
566.767	4446.62
566.864	4418.62
566.96	4617.62
567.056	4473.62
567.153	4811.62
567.249	4897.62
567.345	4981.62
567.442	5165.62
567.538	5347.62
567.634	5489.62
567.731	5486.62
567.827	5524.62
567.923	5390.62
568.019	5026.62
568.116	4757.62
568.212	4555.62
568.308	4417.62
568.404	4261.62
568.501	4022.62
568.597	3916.62
568.693	3647.62
568.789	4359.62
568.885	3562.62
568.982	3361.62
569.078	3225.62
569.174	3370.62
569.27	3052.62
569.366	3151.62
569.462	3052.62
569.558	2945.62
569.655	2958.62
569.751	2870.62
569.847	2814.62
569.943	2782.62
570.039	2739.62
570.135	3249.62
570.231	2782.62
570.327	3020.62
570.423	2870.62
570.519	2815.62
570.615	2761.62
570.711	2993.62
570.807	2921.62
570.903	2833.62
570.999	2948.62
571.095	2858.62
571.191	2754.62
571.287	2780.62
571.383	2753.62
571.479	2634.62
571.574	2676.62
571.67	2591.62
571.766	2666.62
571.862	2480.62
571.958	2519.62
572.054	2515.62
572.15	2356.62
572.246	2400.62
572.341	2491.62
572.437	2383.62
572.533	2442.62
572.629	2405.62
572.725	2298.62
572.82	2326.62
572.916	2437.62
573.012	2297.62
573.108	2393.62
573.203	2292.62
573.299	2197.62
573.395	2213.62
573.49	2194.62
573.586	2175.62
573.682	2161.62
573.778	2325.62
573.873	2206.62
573.969	2155.62
574.065	2150.62
574.16	2276.62
574.256	2218.62
574.351	2249.62
574.447	2186.62
574.543	2188.62
574.638	2216.62
574.734	2204.62
574.829	2383.62
574.925	2159.62
575.02	2109.62
575.116	2124.62
575.212	2090.62
575.307	2214.62
575.403	2090.62
575.498	2086.62
575.594	2088.62
575.689	2195.62
575.784	2070.62
575.88	2046.62
575.975	2125.62
576.071	2023.62
576.166	1935.62
576.262	2030.62
576.357	2024.62
576.452	2194.62
576.548	1995.62
576.643	2018.62
576.739	2031.62
576.834	2008.62
576.929	2053.62
577.025	2663.62
577.12	1910.62
577.215	1919.62
577.311	1972.62
577.406	1955.62
577.501	2072.62
577.597	1813.62
577.692	1984.62
577.787	2010.62
577.882	1895.62
577.978	1837.62
578.073	1850.62
578.168	1824.62
578.263	1736.62
578.358	1818.62
578.454	1760.62
578.549	1774.62
578.644	1700.62
578.739	1865.62
578.834	1764.62
578.929	1723.62
579.025	1767.62
579.12	1845.62
579.215	2024.62
579.31	1929.62
579.405	1772.62
579.5	1788.62
579.595	1712.62
579.69	1678.62
579.785	1693.62
579.88	1646.62
579.975	1696.62
580.07	1675.62
580.165	1696.62
580.26	1785.62
580.355	1754.62
580.45	1673.62
580.545	1656.62
580.64	1675.62
580.735	1719.62
580.83	1703.62
580.925	1615.62
581.02	1558.62
581.115	1563.62
581.21	1530.62
581.305	1653.62
581.4	1580.62
581.495	1629.62
581.589	1595.62
581.684	1510.62
581.779	1656.62
581.874	1632.62
581.969	1551.62
582.064	1539.62
582.158	1575.62
582.253	1559.62
582.348	1581.62
582.443	1588.62
582.537	1631.62
582.632	1790.62
582.727	1564.62
582.822	1518.62
582.916	1479.62
583.011	1497.62
583.106	1671.62
583.201	1490.62
583.295	1468.62
583.39	1453.62
583.485	1459.62
583.579	3415.62
583.674	1683.62
583.769	1773.62
583.863	1486.62
583.958	1469.62
584.052	1448.62
584.147	1469.62
584.242	1334.62
584.336	1497.62
584.431	1640.62
584.525	1461.62
584.62	1626.62
584.714	1469.62
584.809	1491.62
584.903	1446.62
584.998	1535.62
585.092	1351.62
585.187	1405.62
585.281	1432.62
585.376	1422.62
585.47	1453.62
585.565	1425.62
585.659	1318.62
585.754	1379.62
585.848	1494.62
585.942	1406.62
586.037	1349.62
586.131	2701.62
586.226	1529.62
586.32	1440.62
586.414	1277.62
586.509	1484.62
586.603	1452.62
586.697	1370.62
586.792	1325.62
586.886	1344.62
586.98	1462.62
587.075	1418.62
587.169	1342.62
587.263	1530.62
587.357	1379.62
587.452	1401.62
587.546	1493.62
587.64	1268.62
587.734	1425.62
587.829	1420.62
587.923	1268.62
588.017	1369.62
588.111	1375.62
588.205	1410.62
588.3	1371.62
588.394	1377.62
588.488	1385.62
588.582	1590.62
588.676	1754.62
588.77	2940.62
588.864	6560.62
588.958	6256.62
589.052	4283.62
589.147	2723.62
589.241	2072.62
589.335	2149.62
589.429	4198.62
589.523	5086.62
589.617	3886.62
589.711	2485.62
589.805	1870.62
589.899	1715.62
589.993	1454.62
590.087	1364.62
590.181	1308.62
590.275	1366.62
590.369	1315.62
590.462	1384.62
590.556	1277.62
590.65	1285.62
590.744	1329.62
590.838	1287.62
590.932	1313.62
591.026	1410.62
591.12	1532.62
591.214	1330.62
591.307	1406.62
591.401	1338.62
591.495	1397.62
591.589	1322.62
591.683	1412.62
591.777	1382.62
591.87	1782.62
591.964	1430.62
592.058	1399.62
592.152	1481.62
592.245	1467.62
592.339	1631.62
592.433	1666.62
592.527	1615.62
592.62	1580.62
592.714	1647.62
592.808	1663.62
592.901	1668.62
592.995	1550.62
593.089	1866.62
593.182	1733.62
593.276	1642.62
593.37	1609.62
593.463	1592.62
593.557	1690.62
593.65	1603.62
593.744	1662.62
593.837	1786.62
593.931	1646.62
594.025	4845.62
594.118	2013.62
594.212	1611.62
594.305	1547.62
594.399	1648.62
594.492	1950.62
594.586	1502.62
594.679	1470.62
594.773	1485.62
594.866	1476.62
594.96	1466.62
595.053	1349.62
595.146	1392.62
595.24	1334.62
595.333	1344.62
595.427	1256.62
595.52	1219.62
595.614	1411.62
595.707	1244.62
595.8	1168.62
595.894	1251.62
595.987	1191.62
596.08	1162.62
596.174	1564.62
596.267	1297.62
596.36	1313.62
596.454	1369.62
596.547	1267.62
596.64	1094.62
596.733	1107.62
596.827	1232.62
596.92	1139.62
597.013	990.62
597.106	1016.62
597.2	1120.62
597.293	1023.62
597.386	1285.62
597.479	1127.62
597.572	1127.62
597.666	1049.62
597.759	1088.62
597.852	1172.62
597.945	1005.62
598.038	1030.62
598.131	1057.62
598.224	1001.62
598.317	1087.62
598.411	1104.62
598.504	983.62
598.597	1070.62
598.69	1087.62
598.783	995.62
598.876	1081.62
598.969	1084.62
599.062	978.62
599.155	1047.62
599.248	998.62
599.341	1078.62
599.434	1005.62
599.527	1071.62
599.62	1096.62
599.713	968.62
599.806	1034.62
599.899	1231.62
599.991	1013.62
600.084	1191.62
600.177	1031.62
600.27	990.62
600.363	1148.62
600.456	1028.62
600.549	1043.62
600.642	899.62
600.734	954.62
600.827	1036.62
600.92	1126.62
601.013	971.62
601.106	1071.62
601.199	931.62
601.291	939.62
601.384	1027.62
601.477	1181.62
601.57	1074.62
601.662	993.62
601.755	1039.62
601.848	1031.62
601.94	985.62
602.033	1128.62
602.126	1078.62
602.219	1012.62
602.311	1163.62
602.404	965.62
602.497	879.62
602.589	969.62
602.682	998.62
602.774	987.62
602.867	983.62
602.96	961.62
603.052	919.62
603.145	933.62
603.237	988.62
603.33	956.62
603.422	1100.62
603.515	946.62
603.608	983.62
603.7	941.62
603.793	987.62
603.885	1006.62
603.978	929.62
604.07	909.62
604.163	913.62
604.255	952.62
604.347	893.62
604.44	912.62
604.532	937.62
604.625	936.62
604.717	958.62
604.81	995.62
604.902	944.62
604.994	924.62
605.087	927.62
605.179	887.62
605.271	997.62
605.364	931.62
605.456	983.62
605.548	893.62
605.641	993.62
605.733	894.62
605.825	884.62
605.918	905.62
606.01	1096.62
606.102	1354.62
606.194	961.62
606.287	1065.62
606.379	883.62
606.471	946.62
606.563	1020.62
606.655	972.62
606.748	1006.62
606.84	965.62
606.932	1019.62
607.024	923.62
607.116	916.62
607.208	866.62
607.301	925.62
607.393	978.62
607.485	894.62
607.577	998.62
607.669	993.62
607.761	967.62
607.853	1181.62
607.945	843.62
608.037	834.62
608.129	890.62
608.221	885.62
608.313	901.62
608.405	937.62
608.497	842.62
608.589	911.62
608.681	908.62
608.773	976.62
608.865	996.62
608.957	942.62
609.049	889.62
609.141	994.62
609.233	910.62
609.325	845.62
609.417	867.62
609.509	993.62
609.601	1083.62
609.693	993.62
609.784	919.62
609.876	931.62
609.968	928.62
610.06	3256.62
610.152	1207.62
610.244	1151.62
610.335	892.62
610.427	918.62
610.519	877.62
610.611	913.62
610.702	891.62
610.794	941.62
610.886	923.62
610.978	894.62
611.069	1327.62
611.161	858.62
611.253	962.62
611.344	853.62
611.436	761.62
611.528	868.62
611.62	746.62
611.711	822.62
611.803	782.62
611.894	794.62
611.986	708.62
612.078	761.62
612.169	787.62
612.261	731.62
612.352	680.62
612.444	684.62
612.536	836.62
612.627	705.62
612.719	637.62
612.81	671.62
612.902	620.62
612.993	675.62
613.085	701.62
613.176	614.62
613.268	639.62
613.359	604.62
613.451	569.62
613.542	593.62
613.634	600.62
613.725	614.62
613.816	657.62
613.908	534.62
613.999	567.62
614.091	418.62
614.182	440.62
614.273	582.62
614.365	460.62
614.456	348.62
614.547	436.62
614.639	424.62
614.73	379.62
614.821	508.62
614.913	394.62
615.004	306.62
615.095	335.62
615.187	383.62
