Data from 28g_HRC06701__35__401.txt Node

Date: Thu Apr 18 02:21:06 CDT 2024
User: Estudiantes 2
Spectrometer: HR+C0670
Trigger mode: 4
Integration Time (sec): 1.000000E0
Scans to average: 1
Electric dark correction enabled: true
Nonlinearity correction enabled: false
Boxcar width: 0
XAxis mode: Wavelengths
Number of Pixels in Spectrum: 2048
>>>>>Begin Spectral Data<<<<<
407.81	-90.88
407.921	-90.88
408.032	-90.88
408.143	-146.88
408.254	-160.88
408.365	80.12
408.476	260.12
408.587	6.12
408.699	-11.88
408.81	-30.88
408.921	-70.88
409.032	-39.88
409.143	42.12
409.254	17.12
409.365	86.12
409.476	8.12
409.587	-21.88
409.698	74.12
409.809	134.12
409.92	-53.88
410.031	-37.88
410.142	101.12
410.253	10.12
410.364	31.12
410.475	237.12
410.585	1444.12
410.696	1494.12
410.807	1429.12
410.918	1428.12
411.029	1479.12
411.14	1517.12
411.251	1518.12
411.362	1571.12
411.472	1601.12
411.583	1574.12
411.694	1609.12
411.805	1548.12
411.916	1575.12
412.026	1641.12
412.137	1547.12
412.248	1556.12
412.359	1593.12
412.47	1421.12
412.58	1413.12
412.691	1556.12
412.802	1482.12
412.912	1450.12
413.023	1491.12
413.134	1463.12
413.245	1579.12
413.355	1447.12
413.466	1519.12
413.577	1431.12
413.687	1534.12
413.798	1417.12
413.909	1524.12
414.019	1525.12
414.13	1581.12
414.24	1437.12
414.351	1547.12
414.462	1717.12
414.572	1589.12
414.683	1559.12
414.793	1499.12
414.904	1892.12
415.014	1519.12
415.125	1445.12
415.235	1593.12
415.346	1620.12
415.456	1613.12
415.567	1556.12
415.677	1519.12
415.788	1520.12
415.898	1456.12
416.009	1518.12
416.119	1513.12
416.23	1510.12
416.34	1512.12
416.45	1497.12
416.561	2334.12
416.671	1652.12
416.782	1426.12
416.892	1451.12
417.002	1603.12
417.113	1621.12
417.223	1577.12
417.333	1595.12
417.444	1625.12
417.554	1609.12
417.664	1659.12
417.775	1559.12
417.885	1638.12
417.995	1592.12
418.106	1895.12
418.216	1678.12
418.326	1719.12
418.436	1748.12
418.547	1699.12
418.657	1608.12
418.767	1815.12
418.877	1759.12
418.987	1726.12
419.098	1744.12
419.208	1824.12
419.318	1830.12
419.428	1870.12
419.538	1818.12
419.648	1797.12
419.759	1802.12
419.869	1850.12
419.979	1734.12
420.089	1751.12
420.199	1778.12
420.309	1824.12
420.419	1814.12
420.529	1820.12
420.639	2269.12
420.749	1831.12
420.859	1896.12
420.969	1845.12
421.079	2001.12
421.189	1891.12
421.299	1904.12
421.409	1820.12
421.519	1899.12
421.629	1994.12
421.739	1861.12
421.849	1842.12
421.959	1876.12
422.069	1950.12
422.179	1835.12
422.289	1897.12
422.399	2024.12
422.509	2077.12
422.619	5606.12
422.729	2301.12
422.838	1853.12
422.948	2036.12
423.058	1995.12
423.168	2059.12
423.278	2058.12
423.388	2093.12
423.498	2219.12
423.607	2115.12
423.717	2466.12
423.827	2445.12
423.937	2156.12
424.046	2306.12
424.156	2283.12
424.266	2204.12
424.376	2466.12
424.485	2379.12
424.595	2216.12
424.705	2184.12
424.815	2222.12
424.924	2766.12
425.034	2301.12
425.144	2163.12
425.253	2319.12
425.363	2290.12
425.473	2301.12
425.582	2200.12
425.692	2272.12
425.801	2237.12
425.911	2502.12
426.021	2339.12
426.13	2399.12
426.24	2522.12
426.349	2526.12
426.459	2298.12
426.568	2350.12
426.678	2532.12
426.787	2326.12
426.897	2297.12
427.006	2487.12
427.116	2487.12
427.225	2371.12
427.335	2495.12
427.444	2446.12
427.554	2464.12
427.663	2419.12
427.773	2459.12
427.882	2466.12
427.992	2434.12
428.101	2566.12
428.21	2458.12
428.32	2497.12
428.429	2458.12
428.539	2796.12
428.648	2510.12
428.757	2642.12
428.867	2661.12
428.976	2697.12
429.085	2611.12
429.195	2640.12
429.304	2523.12
429.413	2602.12
429.523	2698.12
429.632	2664.12
429.741	2657.12
429.85	2644.12
429.96	2717.12
430.069	2693.12
430.178	2710.12
430.287	3100.12
430.397	2734.12
430.506	2697.12
430.615	2771.12
430.724	2793.12
430.833	2857.12
430.943	2806.12
431.052	2814.12
431.161	2824.12
431.27	2929.12
431.379	2901.12
431.488	3111.12
431.597	3020.12
431.706	3138.12
431.816	3020.12
431.925	2939.12
432.034	3002.12
432.143	3017.12
432.252	2959.12
432.361	3125.12
432.47	3011.12
432.579	2940.12
432.688	2960.12
432.797	2947.12
432.906	2894.12
433.015	3068.12
433.124	3397.12
433.233	3079.12
433.342	3137.12
433.451	3064.12
433.56	3076.12
433.669	3096.12
433.778	3050.12
433.886	3084.12
433.995	3091.12
434.104	3336.12
434.213	3210.12
434.322	3149.12
434.431	3471.12
434.54	3401.12
434.649	3592.12
434.757	3522.12
434.866	3401.12
434.975	3419.12
435.084	3413.12
435.193	3336.12
435.301	3376.12
435.41	3502.12
435.519	3554.12
435.628	2932.12
435.737	2934.12
435.845	2990.12
435.954	2872.12
436.063	2874.12
436.171	2903.12
436.28	2966.12
436.389	2991.12
436.498	2849.12
436.606	2960.12
436.715	2952.12
436.823	2780.12
436.932	2727.12
437.041	2690.12
437.149	2735.12
437.258	2639.12
437.367	2662.12
437.475	2598.12
437.584	2890.12
437.692	2751.12
437.801	4250.12
437.91	2790.12
438.018	2703.12
438.127	2600.12
438.235	2704.12
438.344	2725.12
438.452	2655.12
438.561	2576.12
438.669	2549.12
438.778	2532.12
438.886	2596.12
438.995	2550.12
439.103	2663.12
439.212	2566.12
439.32	2578.12
439.428	2629.12
439.537	2621.12
439.645	2674.12
439.754	2725.12
439.862	2613.12
439.97	2706.12
440.079	2743.12
440.187	2686.12
440.295	2812.12
440.404	2741.12
440.512	2696.12
440.62	2752.12
440.729	2852.12
440.837	2887.12
440.945	3510.12
441.054	2950.12
441.162	2956.12
441.27	3077.12
441.378	2998.12
441.487	3076.12
441.595	3505.12
441.703	3101.12
441.811	3083.12
441.92	3011.12
442.028	2880.12
442.136	2983.12
442.244	2960.12
442.352	2932.12
442.461	2740.12
442.569	2826.12
442.677	2831.12
442.785	2856.12
442.893	2861.12
443.001	2810.12
443.109	2801.12
443.217	2881.12
443.325	2877.12
443.434	3411.12
443.542	3195.12
443.65	3025.12
443.758	3159.12
443.866	3019.12
443.974	3427.12
444.082	3210.12
444.19	3245.12
444.298	3434.12
444.406	3577.12
444.514	3534.12
444.622	3572.12
444.73	3631.12
444.838	3503.12
444.946	3406.12
445.054	3355.12
445.161	3207.12
445.269	3092.12
445.377	3120.12
445.485	3067.12
445.593	2993.12
445.701	3178.12
445.809	3088.12
445.917	2934.12
446.025	2899.12
446.132	3044.12
446.24	3006.12
446.348	2947.12
446.456	2871.12
446.564	2795.12
446.671	2979.12
446.779	2856.12
446.887	2757.12
446.995	2844.12
447.102	2862.12
447.21	2849.12
447.318	2834.12
447.426	2755.12
447.533	3086.12
447.641	4049.12
447.749	2950.12
447.856	2870.12
447.964	2832.12
448.072	2925.12
448.179	2846.12
448.287	2870.12
448.395	2928.12
448.502	2726.12
448.61	2837.12
448.718	2791.12
448.825	2891.12
448.933	2885.12
449.04	2777.12
449.148	2951.12
449.256	2873.12
449.363	2872.12
449.471	2980.12
449.578	3016.12
449.686	2826.12
449.793	3074.12
449.901	3036.12
450.008	3119.12
450.116	3164.12
450.223	3106.12
450.331	3204.12
450.438	3137.12
450.546	3182.12
450.653	3310.12
450.76	3257.12
450.868	3313.12
450.975	3531.12
451.083	3304.12
451.19	3286.12
451.297	3328.12
451.405	3333.12
451.512	3277.12
451.619	3496.12
451.727	3530.12
451.834	3294.12
451.941	3389.12
452.049	3407.12
452.156	3412.12
452.263	3345.12
452.371	3528.12
452.478	3498.12
452.585	3455.12
452.692	3446.12
452.8	3551.12
452.907	3630.12
453.014	3484.12
453.121	3519.12
453.229	3445.12
453.336	3558.12
453.443	3685.12
453.55	3432.12
453.657	3584.12
453.765	3664.12
453.872	3603.12
453.979	3584.12
454.086	3529.12
454.193	3662.12
454.3	3540.12
454.407	3687.12
454.514	3805.12
454.621	3589.12
454.729	3704.12
454.836	3662.12
454.943	3617.12
455.05	3669.12
455.157	3813.12
455.264	3705.12
455.371	3764.12
455.478	3750.12
455.585	5107.12
455.692	3851.12
455.799	3923.12
455.906	3852.12
456.013	3808.12
456.12	3784.12
456.227	3860.12
456.334	3891.12
456.44	4049.12
456.547	3937.12
456.654	3864.12
456.761	3933.12
456.868	4073.12
456.975	4010.12
457.082	3890.12
457.189	3921.12
457.296	4048.12
457.402	3989.12
457.509	4032.12
457.616	4175.12
457.723	4378.12
457.83	4085.12
457.936	4123.12
458.043	4546.12
458.15	4311.12
458.257	4356.12
458.363	4488.12
458.47	4393.12
458.577	4528.12
458.684	4626.12
458.79	4901.12
458.897	4799.12
459.004	5013.12
459.11	4867.12
459.217	5058.12
459.324	5150.12
459.43	5233.12
459.537	5424.12
459.644	5289.12
459.75	5357.12
459.857	5817.12
459.964	5547.12
460.07	5767.12
460.177	5724.12
460.283	5809.12
460.39	5916.12
460.496	5722.12
460.603	5856.12
460.71	5752.12
460.816	5602.12
460.923	5579.12
461.029	5690.12
461.136	5894.12
461.242	5694.12
461.349	5583.12
461.455	5766.12
461.562	6013.12
461.668	5912.12
461.774	5925.12
461.881	5976.12
461.987	6029.12
462.094	6197.12
462.2	6275.12
462.307	6126.12
462.413	6279.12
462.519	6455.12
462.626	6947.12
462.732	7002.12
462.838	7410.12
462.945	7471.12
463.051	7553.12
463.157	7437.12
463.264	7105.12
463.37	6890.12
463.476	6609.12
463.583	6546.12
463.689	6518.12
463.795	6535.12
463.901	6697.12
464.008	6713.12
464.114	6604.12
464.22	6613.12
464.326	6432.12
464.433	6195.12
464.539	6221.12
464.645	6001.12
464.751	6100.12
464.857	5815.12
464.963	5575.12
465.07	5427.12
465.176	5222.12
465.282	5071.12
465.388	4992.12
465.494	4679.12
465.6	4692.12
465.706	4542.12
465.812	4407.12
465.918	4622.12
466.024	4434.12
466.131	4394.12
466.237	4306.12
466.343	4238.12
466.449	4153.12
466.555	4039.12
466.661	3979.12
466.767	3932.12
466.873	3992.12
466.979	4177.12
467.085	3855.12
467.191	3973.12
467.296	3882.12
467.402	3795.12
467.508	3818.12
467.614	4025.12
467.72	3684.12
467.826	3670.12
467.932	3649.12
468.038	3633.12
468.144	3589.12
468.25	3571.12
468.355	3556.12
468.461	3601.12
468.567	3520.12
468.673	3557.12
468.779	3528.12
468.885	3473.12
468.99	3487.12
469.096	3506.12
469.202	3610.12
469.308	3565.12
469.413	3776.12
469.519	3637.12
469.625	3586.12
469.731	3744.12
469.836	3633.12
469.942	3872.12
470.048	3728.12
470.153	3745.12
470.259	3631.12
470.365	3817.12
470.47	3776.12
470.576	3692.12
470.682	3625.12
470.787	3618.12
470.893	3433.12
470.999	3498.12
471.104	3491.12
471.21	3351.12
471.315	3249.12
471.421	3248.12
471.527	3453.12
471.632	3321.12
471.738	3339.12
471.843	3111.12
471.949	3188.12
472.054	3115.12
472.16	3033.12
472.265	3046.12
472.371	3050.12
472.476	3151.12
472.582	3141.12
472.687	2905.12
472.793	2927.12
472.898	2911.12
473.003	2861.12
473.109	2865.12
473.214	2889.12
473.32	2852.12
473.425	3024.12
473.53	3000.12
473.636	2814.12
473.741	2866.12
473.847	2879.12
473.952	2913.12
474.057	2945.12
474.163	3026.12
474.268	2872.12
474.373	2891.12
474.478	2807.12
474.584	2800.12
474.689	2889.12
474.794	2897.12
474.9	3241.12
475.005	2861.12
475.11	3032.12
475.215	2841.12
475.321	2895.12
475.426	3075.12
475.531	3011.12
475.636	2968.12
475.741	2823.12
475.846	3081.12
475.952	3171.12
476.057	2906.12
476.162	3027.12
476.267	3195.12
476.372	3300.12
476.477	2994.12
476.582	3136.12
476.687	2969.12
476.793	3005.12
476.898	2983.12
477.003	3131.12
477.108	3032.12
477.213	3060.12
477.318	3201.12
477.423	3150.12
477.528	3284.12
477.633	3316.12
477.738	3307.12
477.843	3266.12
477.948	3401.12
478.053	3306.12
478.158	3420.12
478.263	3430.12
478.368	3446.12
478.473	3556.12
478.578	3550.12
478.682	3458.12
478.787	3646.12
478.892	3547.12
478.997	3693.12
479.102	3630.12
479.207	3557.12
479.312	3776.12
479.417	3591.12
479.521	3574.12
479.626	3762.12
479.731	3678.12
479.836	3736.12
479.941	3967.12
480.045	3912.12
480.15	3952.12
480.255	3959.12
480.36	3890.12
480.465	3961.12
480.569	4095.12
480.674	3817.12
480.779	3684.12
480.883	3687.12
480.988	3753.12
481.093	3687.12
481.197	3700.12
481.302	3722.12
481.407	3692.12
481.511	5700.12
481.616	3806.12
481.721	3708.12
481.825	3816.12
481.93	3638.12
482.035	3693.12
482.139	3710.12
482.244	3680.12
482.348	3760.12
482.453	3736.12
482.557	3767.12
482.662	3792.12
482.767	3760.12
482.871	3651.12
482.976	3717.12
483.08	3860.12
483.185	3972.12
483.289	3871.12
483.394	3875.12
483.498	3878.12
483.603	3949.12
483.707	4032.12
483.811	4040.12
483.916	4063.12
484.02	4000.12
484.125	4178.12
484.229	4218.12
484.333	4311.12
484.438	4138.12
484.542	4121.12
484.647	4221.12
484.751	4263.12
484.855	4289.12
484.96	4330.12
485.064	4413.12
485.168	4448.12
485.273	4276.12
485.377	4463.12
485.481	4776.12
485.585	4436.12
485.69	4575.12
485.794	4665.12
485.898	4546.12
486.002	4604.12
486.107	4642.12
486.211	4541.12
486.315	4592.12
486.419	4683.12
486.524	4613.12
486.628	4642.12
486.732	4627.12
486.836	4695.12
486.94	4656.12
487.044	4626.12
487.148	4608.12
487.253	4474.12
487.357	4645.12
487.461	4845.12
487.565	4532.12
487.669	4646.12
487.773	4583.12
487.877	4807.12
487.981	4614.12
488.085	4612.12
488.189	4570.12
488.293	4716.12
488.397	5029.12
488.501	4702.12
488.605	4578.12
488.709	4585.12
488.813	4632.12
488.917	4574.12
489.021	4666.12
489.125	4905.12
489.229	4569.12
489.333	4785.12
489.437	4701.12
489.541	4727.12
489.645	4582.12
489.749	4696.12
489.853	4773.12
489.956	4612.12
490.06	4681.12
490.164	4693.12
490.268	4534.12
490.372	4722.12
490.476	4760.12
490.579	4637.12
490.683	5294.12
490.787	4684.12
490.891	4650.12
490.995	4687.12
491.098	4571.12
491.202	4710.12
491.306	4707.12
491.41	4621.12
491.513	4609.12
491.617	4608.12
491.721	4870.12
491.824	4879.12
491.928	4694.12
492.032	4931.12
492.136	4693.12
492.239	4715.12
492.343	4760.12
492.446	5209.12
492.55	4776.12
492.654	4609.12
492.757	4597.12
492.861	4775.12
492.965	4635.12
493.068	4784.12
493.172	4679.12
493.275	4669.12
493.379	4630.12
493.482	4848.12
493.586	4943.12
493.689	4973.12
493.793	4725.12
493.896	4920.12
494	4846.12
494.103	4886.12
494.207	5162.12
494.31	5192.12
494.414	4797.12
494.517	4813.12
494.621	4698.12
494.724	4682.12
494.828	4685.12
494.931	4684.12
495.034	4643.12
495.138	4882.12
495.241	4709.12
495.345	5521.12
495.448	4794.12
495.551	4713.12
495.655	4626.12
495.758	4589.12
495.861	4659.12
495.965	4668.12
496.068	4694.12
496.171	4726.12
496.274	4742.12
496.378	4643.12
496.481	4723.12
496.584	4682.12
496.687	4699.12
496.791	4733.12
496.894	4848.12
496.997	4824.12
497.1	4879.12
497.204	4960.12
497.307	4865.12
497.41	5239.12
497.513	5305.12
497.616	5200.12
497.719	5140.12
497.823	5169.12
497.926	5380.12
498.029	5507.12
498.132	5605.12
498.235	5782.12
498.338	5897.12
498.441	6096.12
498.544	6229.12
498.647	6452.12
498.75	6745.12
498.853	6990.12
498.956	7088.12
499.059	7532.12
499.163	7528.12
499.266	7985.12
499.369	8158.12
499.471	8642.12
499.574	9114.12
499.677	9449.12
499.78	10096.12
499.883	10633.12
499.986	11204.12
500.089	11549.12
500.192	12057.12
500.295	11986.12
500.398	11687.12
500.501	11635.12
500.604	11315.12
500.707	10647.12
500.809	10241.12
500.912	9885.12
501.015	9364.12
501.118	8789.12
501.221	8376.12
501.324	7826.12
501.426	7327.12
501.529	7002.12
501.632	6792.12
501.735	6440.12
501.837	6288.12
501.94	6091.12
502.043	5831.12
502.146	5757.12
502.248	5642.12
502.351	5517.12
502.454	5532.12
502.557	5200.12
502.659	5124.12
502.762	4864.12
502.865	4851.12
502.967	4662.12
503.07	4574.12
503.173	4568.12
503.275	4470.12
503.378	4399.12
503.48	4337.12
503.583	4532.12
503.686	4328.12
503.788	4593.12
503.891	4486.12
503.993	4646.12
504.096	4435.12
504.198	4447.12
504.301	4502.12
504.403	4356.12
504.506	4378.12
504.608	4382.12
504.711	4194.12
504.813	4164.12
504.916	4001.12
505.018	3827.12
505.121	3703.12
505.223	3805.12
505.326	3601.12
505.428	3705.12
505.531	3585.12
505.633	3623.12
505.735	3407.12
505.838	3388.12
505.94	3402.12
506.042	3328.12
506.145	3264.12
506.247	3447.12
506.35	3270.12
506.452	3360.12
506.554	3381.12
506.656	3257.12
506.759	3158.12
506.861	3261.12
506.963	3311.12
507.066	3277.12
507.168	3317.12
507.27	3201.12
507.372	3054.12
507.475	3098.12
507.577	3205.12
507.679	3137.12
507.781	2998.12
507.883	3039.12
507.986	2990.12
508.088	3021.12
508.19	3037.12
508.292	3034.12
508.394	2947.12
508.496	2897.12
508.598	3014.12
508.701	2994.12
508.803	2981.12
508.905	2970.12
509.007	3021.12
509.109	3028.12
509.211	2945.12
509.313	2928.12
509.415	2856.12
509.517	2916.12
509.619	2948.12
509.721	2944.12
509.823	2889.12
509.925	3087.12
510.027	2905.12
510.129	2885.12
510.231	2961.12
510.333	2849.12
510.435	2814.12
510.537	2922.12
510.639	2984.12
510.741	2831.12
510.843	2942.12
510.945	2850.12
511.047	2929.12
511.148	2870.12
511.25	2804.12
511.352	2836.12
511.454	2722.12
511.556	2983.12
511.658	2927.12
511.76	2968.12
511.861	3000.12
511.963	2788.12
512.065	2805.12
512.167	2849.12
512.268	3142.12
512.37	2892.12
512.472	2893.12
512.574	3061.12
512.676	2960.12
512.777	2857.12
512.879	2955.12
512.981	2816.12
513.082	2968.12
513.184	2943.12
513.286	3423.12
513.387	2964.12
513.489	3164.12
513.591	3074.12
513.692	3043.12
513.794	3042.12
513.896	2915.12
513.997	2898.12
514.099	2948.12
514.2	3029.12
514.302	3021.12
514.404	3010.12
514.505	2987.12
514.607	3167.12
514.708	3012.12
514.81	3147.12
514.911	3233.12
515.013	3236.12
515.114	3205.12
515.216	3192.12
515.317	3201.12
515.419	3104.12
515.52	3335.12
515.622	3287.12
515.723	3294.12
515.825	3463.12
515.926	3413.12
516.027	3374.12
516.129	3491.12
516.23	3605.12
516.332	3573.12
516.433	3632.12
516.534	3838.12
516.636	3786.12
516.737	3838.12
516.838	5029.12
516.94	4241.12
517.041	4223.12
517.142	4416.12
517.244	4476.12
517.345	4452.12
517.446	4554.12
517.547	4626.12
517.649	4504.12
517.75	4603.12
517.851	4522.12
517.952	4718.12
518.054	4441.12
518.155	4410.12
518.256	4174.12
518.357	4327.12
518.458	4075.12
518.56	4070.12
518.661	4036.12
518.762	4005.12
518.863	4042.12
518.964	3894.12
519.065	3705.12
519.166	3781.12
519.268	3531.12
519.369	3888.12
519.47	3680.12
519.571	3686.12
519.672	3548.12
519.773	3590.12
519.874	3587.12
519.975	3569.12
520.076	3473.12
520.177	3588.12
520.278	3503.12
520.379	3470.12
520.48	3392.12
520.581	3319.12
520.682	3340.12
520.783	3410.12
520.884	3490.12
520.985	3398.12
521.086	3411.12
521.187	3421.12
521.288	3337.12
521.389	3372.12
521.489	3402.12
521.59	3306.12
521.691	3348.12
521.792	3375.12
521.893	3467.12
521.994	3526.12
522.095	3434.12
522.195	3368.12
522.296	3417.12
522.397	3466.12
522.498	3451.12
522.599	3263.12
522.699	3329.12
522.8	3377.12
522.901	3408.12
523.002	3406.12
523.102	3623.12
523.203	3377.12
523.304	3566.12
523.405	3353.12
523.505	3394.12
523.606	3418.12
523.707	3422.12
523.807	3429.12
523.908	3421.12
524.009	3445.12
524.109	3472.12
524.21	3362.12
524.31	3505.12
524.411	3592.12
524.512	3478.12
524.612	3488.12
524.713	3651.12
524.813	3395.12
524.914	3693.12
525.014	8581.12
525.115	3828.12
525.216	3330.12
525.316	3361.12
525.417	3468.12
525.517	3336.12
525.618	3360.12
525.718	3354.12
525.819	3289.12
525.919	3471.12
526.019	3287.12
526.12	3411.12
526.22	3268.12
526.321	3346.12
526.421	3306.12
526.522	3313.12
526.622	3248.12
526.722	3269.12
526.823	3320.12
526.923	3329.12
527.023	3447.12
527.124	3302.12
527.224	3438.12
527.324	3333.12
527.425	3367.12
527.525	3274.12
527.625	3280.12
527.726	3361.12
527.826	3392.12
527.926	3395.12
528.026	3498.12
528.127	3312.12
528.227	3379.12
528.327	3494.12
528.427	3411.12
528.528	3487.12
528.628	3574.12
528.728	3481.12
528.828	3541.12
528.928	3601.12
529.029	3453.12
529.129	3439.12
529.229	3469.12
529.329	3523.12
529.429	3459.12
529.529	3537.12
529.629	3451.12
529.729	3358.12
529.829	3555.12
529.93	3292.12
530.03	3384.12
530.13	3276.12
530.23	3297.12
530.33	3420.12
530.43	3271.12
530.53	3308.12
530.63	3278.12
530.73	3216.12
530.83	3118.12
530.93	3292.12
531.03	3186.12
531.13	3267.12
531.23	3210.12
531.33	3220.12
531.429	3318.12
531.529	3417.12
531.629	3235.12
531.729	3102.12
531.829	3192.12
531.929	3174.12
532.029	3191.12
532.129	3162.12
532.229	3313.12
532.328	3272.12
532.428	3078.12
532.528	3105.12
532.628	3130.12
532.728	3219.12
532.827	3164.12
532.927	3309.12
533.027	3190.12
533.127	3334.12
533.227	3298.12
533.326	3219.12
533.426	3138.12
533.526	3325.12
533.625	3336.12
533.725	3474.12
533.825	3280.12
533.924	3142.12
534.024	2852.12
534.124	2984.12
534.223	3121.12
534.323	3517.12
534.423	3055.12
534.522	3136.12
534.622	2974.12
534.722	2911.12
534.821	3072.12
534.921	2894.12
535.02	2879.12
535.12	3122.12
535.219	3080.12
535.319	3020.12
535.419	3041.12
535.518	3023.12
535.618	2951.12
535.717	2986.12
535.817	2825.12
535.916	2703.12
536.016	2888.12
536.115	2890.12
536.215	2718.12
536.314	2668.12
536.413	2626.12
536.513	2768.12
536.612	2689.12
536.712	2626.12
536.811	2754.12
536.91	2606.12
537.01	2651.12
537.109	2733.12
537.209	2616.12
537.308	2619.12
537.407	2718.12
537.507	2653.12
537.606	2601.12
537.705	2653.12
537.805	2645.12
537.904	2523.12
538.003	2621.12
538.102	2797.12
538.202	2644.12
538.301	2702.12
538.4	2752.12
538.499	2687.12
538.599	2744.12
538.698	2924.12
538.797	2714.12
538.896	2755.12
538.995	2680.12
539.095	2624.12
539.194	2900.12
539.293	2624.12
539.392	2595.12
539.491	2606.12
539.59	2518.12
539.689	2722.12
539.789	2571.12
539.888	2366.12
539.987	2485.12
540.086	2507.12
540.185	2554.12
540.284	2557.12
540.383	2564.12
540.482	2486.12
540.581	2618.12
540.68	2615.12
540.779	2562.12
540.878	2589.12
540.977	2714.12
541.076	2612.12
541.175	2596.12
541.274	2937.12
541.373	2691.12
541.472	2628.12
541.571	2561.12
541.67	4037.12
541.769	2744.12
541.868	2633.12
541.966	2706.12
542.065	2561.12
542.164	2568.12
542.263	2560.12
542.362	2575.12
542.461	2641.12
542.56	2612.12
542.658	2535.12
542.757	2415.12
542.856	2409.12
542.955	2440.12
543.054	2370.12
543.152	2574.12
543.251	2528.12
543.35	2659.12
543.449	2486.12
543.547	2509.12
543.646	2451.12
543.745	2577.12
543.843	2656.12
543.942	2618.12
544.041	2516.12
544.14	2665.12
544.238	2606.12
544.337	2842.12
544.436	2707.12
544.534	2908.12
544.633	2627.12
544.731	2670.12
544.83	2676.12
544.929	2642.12
545.027	2658.12
545.126	2672.12
545.224	2777.12
545.323	2631.12
545.421	2609.12
545.52	2643.12
545.619	2667.12
545.717	2624.12
545.816	2753.12
545.914	2739.12
546.013	2958.12
546.111	2804.12
546.209	2618.12
546.308	2553.12
546.406	2664.12
546.505	2837.12
546.603	2691.12
546.702	2578.12
546.8	2543.12
546.899	2587.12
546.997	2729.12
547.095	2750.12
547.194	2688.12
547.292	2637.12
547.39	2754.12
547.489	2611.12
547.587	2927.12
547.685	2712.12
547.784	2936.12
547.882	2689.12
547.98	2587.12
548.079	2820.12
548.177	2599.12
548.275	2644.12
548.373	2922.12
548.472	2608.12
548.57	2581.12
548.668	2786.12
548.766	2602.12
548.864	2724.12
548.963	2697.12
549.061	2848.12
549.159	2617.12
549.257	2714.12
549.355	2728.12
549.454	2587.12
549.552	2753.12
549.65	2759.12
549.748	2627.12
549.846	2594.12
549.944	2705.12
550.042	2549.12
550.14	2608.12
550.238	2621.12
550.336	2599.12
550.434	2468.12
550.532	2609.12
550.631	2752.12
550.729	2582.12
550.827	2645.12
550.925	2622.12
551.023	2555.12
551.121	2537.12
551.218	2551.12
551.316	2444.12
551.414	2421.12
551.512	2413.12
551.61	2419.12
551.708	2509.12
551.806	2541.12
551.904	2560.12
552.002	2453.12
552.1	2625.12
552.198	2693.12
552.296	2811.12
552.393	2890.12
552.491	3053.12
552.589	2904.12
552.687	2906.12
552.785	2871.12
552.882	3000.12
552.98	3110.12
553.078	3082.12
553.176	3061.12
553.274	2864.12
553.371	2791.12
553.469	2997.12
553.567	2919.12
553.665	2807.12
553.762	3300.12
553.86	2934.12
553.958	2800.12
554.055	2800.12
554.153	2799.12
554.251	2710.12
554.348	2692.12
554.446	2662.12
554.544	2717.12
554.641	3001.12
554.739	2698.12
554.837	2662.12
554.934	2602.12
555.032	2622.12
555.129	2515.12
555.227	2768.12
555.324	3927.12
555.422	2669.12
555.519	2483.12
555.617	2467.12
555.715	2363.12
555.812	4271.12
555.91	2527.12
556.007	2556.12
556.105	2383.12
556.202	2446.12
556.299	2398.12
556.397	2386.12
556.494	2345.12
556.592	2384.12
556.689	2472.12
556.787	2351.12
556.884	2337.12
556.981	2356.12
557.079	2310.12
557.176	2399.12
557.273	2457.12
557.371	2465.12
557.468	2360.12
557.566	2451.12
557.663	2329.12
557.76	2386.12
557.857	2367.12
557.955	2389.12
558.052	2428.12
558.149	2512.12
558.247	2540.12
558.344	2309.12
558.441	2300.12
558.538	2386.12
558.636	2331.12
558.733	2329.12
558.83	2387.12
558.927	2309.12
559.024	2323.12
559.122	2325.12
559.219	2307.12
559.316	2488.12
559.413	2421.12
559.51	2377.12
559.607	2339.12
559.704	2376.12
559.801	2451.12
559.899	2335.12
559.996	2566.12
560.093	2467.12
560.19	2351.12
560.287	2459.12
560.384	2570.12
560.481	2405.12
560.578	2374.12
560.675	2391.12
560.772	2522.12
560.869	2374.12
560.966	2528.12
561.063	2442.12
561.16	2426.12
561.257	2454.12
561.354	2481.12
561.451	2326.12
561.548	2454.12
561.645	2646.12
561.742	2402.12
561.838	2354.12
561.935	2430.12
562.032	2426.12
562.129	2448.12
562.226	2408.12
562.323	2359.12
562.42	2461.12
562.516	2404.12
562.613	2450.12
562.71	2379.12
562.807	3159.12
562.904	2423.12
563	2469.12
563.097	2473.12
563.194	2514.12
563.291	2465.12
563.387	2511.12
563.484	2497.12
563.581	2509.12
563.678	2430.12
563.774	2967.12
563.871	2589.12
563.968	2495.12
564.064	2619.12
564.161	2687.12
564.258	2609.12
564.354	2650.12
564.451	2679.12
564.548	2728.12
564.644	2678.12
564.741	2666.12
564.837	2714.12
564.934	2703.12
565.031	2782.12
565.127	2798.12
565.224	2922.12
565.32	2995.12
565.417	2891.12
565.513	3002.12
565.61	3089.12
565.706	3160.12
565.803	3280.12
565.899	3225.12
565.996	3392.12
566.092	3415.12
566.189	3485.12
566.285	3620.12
566.382	3814.12
566.478	3940.12
566.574	4082.12
566.671	4048.12
566.767	3962.12
566.864	3974.12
566.96	4093.12
567.056	4015.12
567.153	4256.12
567.249	4249.12
567.345	4449.12
567.442	4541.12
567.538	4575.12
567.634	4674.12
567.731	4684.12
567.827	4710.12
567.923	4673.12
568.019	4297.12
568.116	4094.12
568.212	3818.12
568.308	3882.12
568.404	3709.12
568.501	3513.12
568.597	3509.12
568.693	3285.12
568.789	3945.12
568.885	3071.12
568.982	3032.12
569.078	2829.12
569.174	2834.12
569.27	2686.12
569.366	2735.12
569.462	2714.12
569.558	2631.12
569.655	2601.12
569.751	2509.12
569.847	2602.12
569.943	2525.12
570.039	2432.12
570.135	2949.12
570.231	2383.12
570.327	2621.12
570.423	2527.12
570.519	2623.12
570.615	2498.12
570.711	2620.12
570.807	2626.12
570.903	2476.12
570.999	2584.12
571.095	2621.12
571.191	2481.12
571.287	2504.12
571.383	2585.12
571.479	2371.12
571.574	2455.12
571.67	2308.12
571.766	2527.12
571.862	2237.12
571.958	2221.12
572.054	2326.12
572.15	2087.12
572.246	2086.12
572.341	2247.12
572.437	2077.12
572.533	2094.12
572.629	2144.12
572.725	1990.12
572.82	1898.12
572.916	2114.12
573.012	2008.12
573.108	2020.12
573.203	1972.12
573.299	1965.12
573.395	1930.12
573.49	1843.12
573.586	1890.12
573.682	1935.12
573.778	2055.12
573.873	1846.12
573.969	1822.12
574.065	1918.12
574.16	1941.12
574.256	1981.12
574.351	2029.12
574.447	1922.12
574.543	1957.12
574.638	2069.12
574.734	1989.12
574.829	2192.12
574.925	1896.12
575.02	1938.12
575.116	1854.12
575.212	1855.12
575.307	1963.12
575.403	1833.12
575.498	1886.12
575.594	1806.12
575.689	1909.12
575.784	1886.12
575.88	1817.12
575.975	1903.12
576.071	1827.12
576.166	1738.12
576.262	1810.12
576.357	1827.12
576.452	2001.12
576.548	1805.12
576.643	1822.12
576.739	1938.12
576.834	1780.12
576.929	1801.12
577.025	2415.12
577.12	1708.12
577.215	1716.12
577.311	1821.12
577.406	1786.12
577.501	1895.12
577.597	1675.12
577.692	1883.12
577.787	1780.12
577.882	1675.12
577.978	1703.12
578.073	1602.12
578.168	1610.12
578.263	1611.12
578.358	1565.12
578.454	1539.12
578.549	1637.12
578.644	1529.12
578.739	1584.12
578.834	1558.12
578.929	1457.12
579.025	1487.12
579.12	1561.12
579.215	1773.12
579.31	1681.12
579.405	1465.12
579.5	1621.12
579.595	1527.12
579.69	1431.12
579.785	1503.12
579.88	1457.12
579.975	1488.12
580.07	1501.12
580.165	1466.12
580.26	1601.12
580.355	1482.12
580.45	1483.12
580.545	1356.12
580.64	1441.12
580.735	1599.12
580.83	1560.12
580.925	1426.12
581.02	1473.12
581.115	1334.12
581.21	1376.12
581.305	1517.12
581.4	1409.12
581.495	1394.12
581.589	1449.12
581.684	1376.12
581.779	1449.12
581.874	1473.12
581.969	1494.12
582.064	1321.12
582.158	1387.12
582.253	1392.12
582.348	1363.12
582.443	1411.12
582.537	1354.12
582.632	1624.12
582.727	1325.12
582.822	1355.12
582.916	1322.12
583.011	1304.12
583.106	1350.12
583.201	1386.12
583.295	1350.12
583.39	1189.12
583.485	1291.12
583.579	3144.12
583.674	1448.12
583.769	1543.12
583.863	1268.12
583.958	1297.12
584.052	1226.12
584.147	1219.12
584.242	1200.12
584.336	1252.12
584.431	1477.12
584.525	1214.12
584.62	1437.12
584.714	1400.12
584.809	1271.12
584.903	1202.12
584.998	1372.12
585.092	1223.12
585.187	1233.12
585.281	1239.12
585.376	1236.12
585.47	1242.12
585.565	1215.12
585.659	1155.12
585.754	1194.12
585.848	1215.12
585.942	1212.12
586.037	1206.12
586.131	3560.12
586.226	1420.12
586.32	1258.12
586.414	1075.12
586.509	1310.12
586.603	1299.12
586.697	1163.12
586.792	1117.12
586.886	1146.12
586.98	1265.12
587.075	1201.12
587.169	1189.12
587.263	1384.12
587.357	1198.12
587.452	1143.12
587.546	1282.12
587.64	1136.12
587.734	1217.12
587.829	1270.12
587.923	1106.12
588.017	1153.12
588.111	1198.12
588.205	1272.12
588.3	1182.12
588.394	1152.12
588.488	1201.12
588.582	1389.12
588.676	1524.12
588.77	2402.12
588.864	4929.12
588.958	5011.12
589.052	3747.12
589.147	2432.12
589.241	1835.12
589.335	1839.12
589.429	3312.12
589.523	4082.12
589.617	3434.12
589.711	2300.12
589.805	1654.12
589.899	1467.12
589.993	1270.12
590.087	1143.12
590.181	1179.12
590.275	1209.12
590.369	1148.12
590.462	1074.12
590.556	1127.12
590.65	1071.12
590.744	1087.12
590.838	1120.12
590.932	1081.12
591.026	1161.12
591.12	1357.12
591.214	1164.12
591.307	1171.12
591.401	1114.12
591.495	1275.12
591.589	1113.12
591.683	1146.12
591.777	1270.12
591.87	1596.12
591.964	1242.12
592.058	1235.12
592.152	1269.12
592.245	1249.12
592.339	1379.12
592.433	1411.12
592.527	1288.12
592.62	1240.12
592.714	1363.12
592.808	1407.12
592.901	1367.12
592.995	1344.12
593.089	1568.12
593.182	1406.12
593.276	1386.12
593.37	1270.12
593.463	1267.12
593.557	1329.12
593.65	1300.12
593.744	1344.12
593.837	1472.12
593.931	1379.12
594.025	4579.12
594.118	1692.12
594.212	1403.12
594.305	1346.12
594.399	1366.12
594.492	1764.12
594.586	1267.12
594.679	1215.12
594.773	1246.12
594.866	1335.12
594.96	1206.12
595.053	1109.12
595.146	1168.12
595.24	1124.12
595.333	1090.12
595.427	1081.12
595.52	1048.12
595.614	1230.12
595.707	1161.12
595.8	1006.12
595.894	1081.12
595.987	1052.12
596.08	1010.12
596.174	1431.12
596.267	1136.12
596.36	1187.12
596.454	1145.12
596.547	1114.12
596.64	1015.12
596.733	936.12
596.827	1039.12
596.92	993.12
597.013	840.12
597.106	915.12
597.2	919.12
597.293	891.12
597.386	1127.12
597.479	955.12
597.572	1006.12
597.666	893.12
597.759	876.12
597.852	1013.12
597.945	812.12
598.038	896.12
598.131	884.12
598.224	877.12
598.317	947.12
598.411	971.12
598.504	868.12
598.597	973.12
598.69	881.12
598.783	853.12
598.876	888.12
598.969	922.12
599.062	862.12
599.155	947.12
599.248	814.12
599.341	960.12
599.434	859.12
599.527	886.12
599.62	884.12
599.713	811.12
599.806	925.12
599.899	1048.12
599.991	894.12
600.084	1091.12
600.177	857.12
600.27	859.12
600.363	1010.12
600.456	861.12
600.549	905.12
600.642	814.12
600.734	837.12
600.827	884.12
600.92	1022.12
601.013	886.12
601.106	977.12
601.199	891.12
601.291	863.12
601.384	906.12
601.477	1120.12
601.57	965.12
601.662	861.12
601.755	931.12
601.848	906.12
601.94	798.12
602.033	1005.12
602.126	889.12
602.219	840.12
602.311	1000.12
602.404	871.12
602.497	824.12
602.589	854.12
602.682	922.12
602.774	891.12
602.867	855.12
602.96	924.12
603.052	855.12
603.145	821.12
603.237	880.12
603.33	868.12
603.422	969.12
603.515	840.12
603.608	922.12
603.7	841.12
603.793	848.12
603.885	951.12
603.978	818.12
604.07	805.12
604.163	783.12
604.255	797.12
604.347	780.12
604.44	776.12
604.532	853.12
604.625	766.12
604.717	780.12
604.81	878.12
604.902	805.12
604.994	780.12
605.087	889.12
605.179	788.12
605.271	846.12
605.364	882.12
605.456	887.12
605.548	804.12
605.641	898.12
605.733	846.12
605.825	817.12
605.918	807.12
606.01	1045.12
606.102	1300.12
606.194	856.12
606.287	1054.12
606.379	790.12
606.471	854.12
606.563	900.12
606.655	921.12
606.748	891.12
606.84	832.12
606.932	919.12
607.024	813.12
607.116	819.12
607.208	860.12
607.301	861.12
607.393	813.12
607.485	862.12
607.577	817.12
607.669	981.12
607.761	929.12
607.853	1103.12
607.945	786.12
608.037	786.12
608.129	846.12
608.221	811.12
608.313	810.12
608.405	947.12
608.497	857.12
608.589	772.12
608.681	878.12
608.773	875.12
608.865	797.12
608.957	855.12
609.049	755.12
609.141	873.12
609.233	807.12
609.325	751.12
609.417	758.12
609.509	921.12
609.601	983.12
609.693	885.12
609.784	818.12
609.876	832.12
609.968	865.12
610.06	3121.12
610.152	1098.12
610.244	1096.12
610.335	778.12
610.427	854.12
610.519	839.12
610.611	792.12
610.702	761.12
610.794	834.12
610.886	887.12
610.978	815.12
611.069	1357.12
611.161	858.12
611.253	813.12
611.344	732.12
611.436	690.12
611.528	806.12
611.62	719.12
611.711	765.12
611.803	650.12
611.894	679.12
611.986	704.12
612.078	704.12
612.169	707.12
612.261	678.12
612.352	588.12
612.444	645.12
612.536	788.12
612.627	677.12
612.719	595.12
612.81	553.12
612.902	585.12
612.993	558.12
613.085	605.12
613.176	531.12
613.268	580.12
613.359	520.12
613.451	600.12
613.542	545.12
613.634	509.12
613.725	566.12
613.816	614.12
613.908	440.12
613.999	465.12
614.091	459.12
614.182	376.12
614.273	498.12
614.365	449.12
614.456	341.12
614.547	395.12
614.639	422.12
614.73	374.12
614.821	466.12
614.913	360.12
615.004	286.12
615.095	268.12
615.187	275.12
