Data from 28g_HRC06701__36__402.txt Node

Date: Thu Apr 18 02:21:07 CDT 2024
User: Estudiantes 2
Spectrometer: HR+C0670
Trigger mode: 4
Integration Time (sec): 1.000000E0
Scans to average: 1
Electric dark correction enabled: true
Nonlinearity correction enabled: false
Boxcar width: 0
XAxis mode: Wavelengths
Number of Pixels in Spectrum: 2048
>>>>>Begin Spectral Data<<<<<
407.81	-157.56
407.921	-157.56
408.032	-157.56
408.143	-122.56
408.254	-95.56
408.365	34.44
408.476	281.44
408.587	-8.56
408.699	0.44
408.81	-26.56
408.921	-60.56
409.032	-22.56
409.143	22.44
409.254	25.44
409.365	102.44
409.476	-47.56
409.587	-13.56
409.698	88.44
409.809	85.44
409.92	-38.56
410.031	-0.56
410.142	96.44
410.253	24.44
410.364	44.44
410.475	2.44
410.585	59.44
410.696	99.44
410.807	126.44
410.918	74.44
411.029	161.44
411.14	150.44
411.251	67.44
411.362	147.44
411.472	156.44
411.583	172.44
411.694	130.44
411.805	104.44
411.916	121.44
412.026	157.44
412.137	127.44
412.248	158.44
412.359	106.44
412.47	49.44
412.58	66.44
412.691	139.44
412.802	117.44
412.912	112.44
413.023	119.44
413.134	86.44
413.245	181.44
413.355	129.44
413.466	72.44
413.577	93.44
413.687	235.44
413.798	53.44
413.909	155.44
414.019	128.44
414.13	147.44
414.24	60.44
414.351	131.44
414.462	324.44
414.572	147.44
414.683	138.44
414.793	128.44
414.904	375.44
415.014	85.44
415.125	136.44
415.235	151.44
415.346	213.44
415.456	286.44
415.567	131.44
415.677	116.44
415.788	177.44
415.898	118.44
416.009	83.44
416.119	175.44
416.23	141.44
416.34	50.44
416.45	137.44
416.561	944.44
416.671	251.44
416.782	63.44
416.892	137.44
417.002	187.44
417.113	176.44
417.223	130.44
417.333	91.44
417.444	86.44
417.554	146.44
417.664	200.44
417.775	36.44
417.885	98.44
417.995	146.44
418.106	233.44
418.216	144.44
418.326	172.44
418.436	98.44
418.547	99.44
418.657	125.44
418.767	243.44
418.877	136.44
418.987	100.44
419.098	129.44
419.208	92.44
419.318	202.44
419.428	172.44
419.538	72.44
419.648	172.44
419.759	207.44
419.869	183.44
419.979	93.44
420.089	129.44
420.199	119.44
420.309	147.44
420.419	192.44
420.529	152.44
420.639	626.44
420.749	224.44
420.859	228.44
420.969	152.44
421.079	388.44
421.189	268.44
421.299	225.44
421.409	91.44
421.519	229.44
421.629	252.44
421.739	138.44
421.849	126.44
421.959	141.44
422.069	153.44
422.179	116.44
422.289	134.44
422.399	114.44
422.509	188.44
422.619	3653.44
422.729	529.44
422.838	87.44
422.948	168.44
423.058	178.44
423.168	136.44
423.278	131.44
423.388	214.44
423.498	200.44
423.607	185.44
423.717	459.44
423.827	438.44
423.937	173.44
424.046	252.44
424.156	243.44
424.266	137.44
424.376	355.44
424.485	332.44
424.595	132.44
424.705	146.44
424.815	221.44
424.924	587.44
425.034	239.44
425.144	119.44
425.253	152.44
425.363	183.44
425.473	281.44
425.582	126.44
425.692	113.44
425.801	105.44
425.911	296.44
426.021	185.44
426.13	273.44
426.24	423.44
426.349	271.44
426.459	176.44
426.568	149.44
426.678	285.44
426.787	149.44
426.897	171.44
427.006	163.44
427.116	193.44
427.225	170.44
427.335	255.44
427.444	154.44
427.554	223.44
427.663	205.44
427.773	117.44
427.882	222.44
427.992	180.44
428.101	154.44
428.21	141.44
428.32	185.44
428.429	130.44
428.539	410.44
428.648	180.44
428.757	259.44
428.867	208.44
428.976	327.44
429.085	236.44
429.195	143.44
429.304	200.44
429.413	265.44
429.523	224.44
429.632	212.44
429.741	218.44
429.85	124.44
429.96	169.44
430.069	176.44
430.178	202.44
430.287	442.44
430.397	226.44
430.506	230.44
430.615	174.44
430.724	220.44
430.833	253.44
430.943	200.44
431.052	180.44
431.161	209.44
431.27	187.44
431.379	166.44
431.488	345.44
431.597	267.44
431.706	238.44
431.816	207.44
431.925	231.44
432.034	164.44
432.143	232.44
432.252	266.44
432.361	318.44
432.47	213.44
432.579	261.44
432.688	196.44
432.797	229.44
432.906	176.44
433.015	265.44
433.124	617.44
433.233	272.44
433.342	363.44
433.451	210.44
433.56	226.44
433.669	276.44
433.778	186.44
433.886	258.44
433.995	227.44
434.104	361.44
434.213	231.44
434.322	200.44
434.431	376.44
434.54	216.44
434.649	377.44
434.757	337.44
434.866	234.44
434.975	328.44
435.084	378.44
435.193	336.44
435.301	474.44
435.41	618.44
435.519	720.44
435.628	266.44
435.737	246.44
435.845	211.44
435.954	155.44
436.063	192.44
436.171	263.44
436.28	231.44
436.389	343.44
436.498	291.44
436.606	232.44
436.715	369.44
436.823	203.44
436.932	204.44
437.041	223.44
437.149	233.44
437.258	223.44
437.367	149.44
437.475	193.44
437.584	470.44
437.692	215.44
437.801	1721.44
437.91	395.44
438.018	169.44
438.127	156.44
438.235	280.44
438.344	210.44
438.452	215.44
438.561	169.44
438.669	216.44
438.778	138.44
438.886	168.44
438.995	199.44
439.103	152.44
439.212	198.44
439.32	222.44
439.428	156.44
439.537	208.44
439.645	276.44
439.754	248.44
439.862	180.44
439.97	222.44
440.079	240.44
440.187	112.44
440.295	324.44
440.404	228.44
440.512	206.44
440.62	262.44
440.729	292.44
440.837	260.44
440.945	859.44
441.054	311.44
441.162	228.44
441.27	288.44
441.378	185.44
441.487	271.44
441.595	529.44
441.703	319.44
441.811	289.44
441.92	201.44
442.028	183.44
442.136	288.44
442.244	282.44
442.352	247.44
442.461	181.44
442.569	171.44
442.677	179.44
442.785	255.44
442.893	240.44
443.001	119.44
443.109	158.44
443.217	210.44
443.325	148.44
443.434	702.44
443.542	513.44
443.65	179.44
443.758	359.44
443.866	226.44
443.974	473.44
444.082	245.44
444.19	222.44
444.298	283.44
444.406	299.44
444.514	228.44
444.622	373.44
444.73	303.44
444.838	241.44
444.946	328.44
445.054	214.44
445.161	182.44
445.269	224.44
445.377	283.44
445.485	222.44
445.593	234.44
445.701	493.44
445.809	301.44
445.917	240.44
446.025	186.44
446.132	322.44
446.24	284.44
446.348	295.44
446.456	169.44
446.564	187.44
446.671	257.44
446.779	191.44
446.887	148.44
446.995	204.44
447.102	259.44
447.21	255.44
447.318	203.44
447.426	219.44
447.533	437.44
447.641	1395.44
447.749	404.44
447.856	171.44
447.964	246.44
448.072	318.44
448.179	198.44
448.287	202.44
448.395	269.44
448.502	202.44
448.61	199.44
448.718	201.44
448.825	326.44
448.933	184.44
449.04	212.44
449.148	242.44
449.256	223.44
449.363	199.44
449.471	246.44
449.578	282.44
449.686	166.44
449.793	299.44
449.901	261.44
450.008	222.44
450.116	268.44
450.223	279.44
450.331	252.44
450.438	259.44
450.546	250.44
450.653	295.44
450.76	290.44
450.868	320.44
450.975	478.44
451.083	247.44
451.19	292.44
451.297	338.44
451.405	289.44
451.512	201.44
451.619	427.44
451.727	368.44
451.834	297.44
451.941	297.44
452.049	263.44
452.156	234.44
452.263	296.44
452.371	277.44
452.478	307.44
452.585	393.44
452.692	287.44
452.8	294.44
452.907	410.44
453.014	361.44
453.121	248.44
453.229	295.44
453.336	386.44
453.443	385.44
453.55	243.44
453.657	370.44
453.765	349.44
453.872	258.44
453.979	356.44
454.086	336.44
454.193	293.44
454.3	280.44
454.407	438.44
454.514	408.44
454.621	256.44
454.729	268.44
454.836	259.44
454.943	268.44
455.05	410.44
455.157	376.44
455.264	261.44
455.371	330.44
455.478	305.44
455.585	1492.44
455.692	454.44
455.799	508.44
455.906	282.44
456.013	298.44
456.12	304.44
456.227	288.44
456.334	341.44
456.44	416.44
456.547	319.44
456.654	241.44
456.761	313.44
456.868	418.44
456.975	343.44
457.082	297.44
457.189	330.44
457.296	306.44
457.402	256.44
457.509	293.44
457.616	356.44
457.723	482.44
457.83	321.44
457.936	312.44
458.043	573.44
458.15	362.44
458.257	461.44
458.363	364.44
458.47	356.44
458.577	427.44
458.684	322.44
458.79	406.44
458.897	443.44
459.004	447.44
459.11	314.44
459.217	379.44
459.324	477.44
459.43	517.44
459.537	663.44
459.644	479.44
459.75	357.44
459.857	773.44
459.964	542.44
460.07	476.44
460.177	490.44
460.283	530.44
460.39	582.44
460.496	497.44
460.603	533.44
460.71	497.44
460.816	410.44
460.923	464.44
461.029	545.44
461.136	468.44
461.242	467.44
461.349	505.44
461.455	421.44
461.562	784.44
461.668	615.44
461.774	506.44
461.881	544.44
461.987	475.44
462.094	569.44
462.2	542.44
462.307	602.44
462.413	542.44
462.519	496.44
462.626	657.44
462.732	641.44
462.838	620.44
462.945	736.44
463.051	697.44
463.157	620.44
463.264	602.44
463.37	619.44
463.476	627.44
463.583	552.44
463.689	528.44
463.795	535.44
463.901	592.44
464.008	645.44
464.114	594.44
464.22	491.44
464.326	568.44
464.433	554.44
464.539	515.44
464.645	470.44
464.751	710.44
464.857	593.44
464.963	386.44
465.07	492.44
465.176	504.44
465.282	437.44
465.388	532.44
465.494	386.44
465.6	400.44
465.706	346.44
465.812	340.44
465.918	437.44
466.024	319.44
466.131	443.44
466.237	385.44
466.343	325.44
466.449	301.44
466.555	372.44
466.661	306.44
466.767	294.44
466.873	377.44
466.979	490.44
467.085	347.44
467.191	365.44
467.296	311.44
467.402	275.44
467.508	347.44
467.614	481.44
467.72	276.44
467.826	296.44
467.932	343.44
468.038	284.44
468.144	322.44
468.25	305.44
468.355	224.44
468.461	295.44
468.567	253.44
468.673	277.44
468.779	295.44
468.885	288.44
468.99	239.44
469.096	256.44
469.202	383.44
469.308	411.44
469.413	364.44
469.519	303.44
469.625	323.44
469.731	332.44
469.836	281.44
469.942	491.44
470.048	357.44
470.153	324.44
470.259	299.44
470.365	472.44
470.47	395.44
470.576	330.44
470.682	359.44
470.787	274.44
470.893	261.44
470.999	367.44
471.104	367.44
471.21	242.44
471.315	194.44
471.421	214.44
471.527	433.44
471.632	388.44
471.738	378.44
471.843	213.44
471.949	314.44
472.054	368.44
472.16	226.44
472.265	282.44
472.371	268.44
472.476	289.44
472.582	317.44
472.687	291.44
472.793	240.44
472.898	257.44
473.003	233.44
473.109	271.44
473.214	185.44
473.32	226.44
473.425	370.44
473.53	252.44
473.636	192.44
473.741	256.44
473.847	195.44
473.952	266.44
474.057	344.44
474.163	267.44
474.268	196.44
474.373	307.44
474.478	208.44
474.584	204.44
474.689	295.44
474.794	320.44
474.9	496.44
475.005	230.44
475.11	402.44
475.215	226.44
475.321	255.44
475.426	453.44
475.531	440.44
475.636	227.44
475.741	247.44
475.846	373.44
475.952	435.44
476.057	327.44
476.162	414.44
476.267	413.44
476.372	557.44
476.477	299.44
476.582	356.44
476.687	241.44
476.793	296.44
476.898	256.44
477.003	241.44
477.108	267.44
477.213	242.44
477.318	271.44
477.423	332.44
477.528	418.44
477.633	352.44
477.738	319.44
477.843	297.44
477.948	278.44
478.053	297.44
478.158	311.44
478.263	323.44
478.368	255.44
478.473	371.44
478.578	378.44
478.682	214.44
478.787	331.44
478.892	320.44
478.997	314.44
479.102	310.44
479.207	334.44
479.312	420.44
479.417	337.44
479.521	288.44
479.626	438.44
479.731	357.44
479.836	322.44
479.941	484.44
480.045	399.44
480.15	387.44
480.255	383.44
480.36	282.44
480.465	345.44
480.569	503.44
480.674	340.44
480.779	263.44
480.883	318.44
480.988	367.44
481.093	310.44
481.197	343.44
481.302	401.44
481.407	382.44
481.511	2291.44
481.616	551.44
481.721	331.44
481.825	491.44
481.93	317.44
482.035	295.44
482.139	367.44
482.244	385.44
482.348	330.44
482.453	321.44
482.557	385.44
482.662	368.44
482.767	252.44
482.871	292.44
482.976	374.44
483.08	327.44
483.185	448.44
483.289	314.44
483.394	330.44
483.498	362.44
483.603	317.44
483.707	387.44
483.811	377.44
483.916	474.44
484.02	375.44
484.125	432.44
484.229	396.44
484.333	478.44
484.438	312.44
484.542	290.44
484.647	339.44
484.751	341.44
484.855	345.44
484.96	359.44
485.064	402.44
485.168	383.44
485.273	354.44
485.377	421.44
485.481	551.44
485.585	354.44
485.69	386.44
485.794	376.44
485.898	384.44
486.002	388.44
486.107	421.44
486.211	385.44
486.315	406.44
486.419	484.44
486.524	384.44
486.628	337.44
486.732	414.44
486.836	417.44
486.94	456.44
487.044	471.44
487.148	353.44
487.253	355.44
487.357	420.44
487.461	548.44
487.565	378.44
487.669	375.44
487.773	423.44
487.877	480.44
487.981	448.44
488.085	523.44
488.189	408.44
488.293	535.44
488.397	932.44
488.501	449.44
488.605	367.44
488.709	411.44
488.813	395.44
488.917	344.44
489.021	397.44
489.125	711.44
489.229	379.44
489.333	539.44
489.437	499.44
489.541	421.44
489.645	437.44
489.749	455.44
489.853	479.44
489.956	382.44
490.06	502.44
490.164	466.44
490.268	383.44
490.372	444.44
490.476	420.44
490.579	369.44
490.683	1034.44
490.787	552.44
490.891	397.44
490.995	473.44
491.098	475.44
491.202	450.44
491.306	484.44
491.41	444.44
491.513	381.44
491.617	403.44
491.721	626.44
491.824	751.44
491.928	451.44
492.032	653.44
492.136	491.44
492.239	388.44
492.343	440.44
492.446	863.44
492.55	499.44
492.654	393.44
492.757	441.44
492.861	499.44
492.965	428.44
493.068	474.44
493.172	455.44
493.275	391.44
493.379	355.44
493.482	607.44
493.586	569.44
493.689	604.44
493.793	508.44
493.896	520.44
494	488.44
494.103	547.44
494.207	748.44
494.31	776.44
494.414	525.44
494.517	500.44
494.621	397.44
494.724	448.44
494.828	482.44
494.931	398.44
495.034	411.44
495.138	631.44
495.241	399.44
495.345	1154.44
495.448	627.44
495.551	421.44
495.655	404.44
495.758	404.44
495.861	429.44
495.965	366.44
496.068	484.44
496.171	530.44
496.274	419.44
496.378	402.44
496.481	484.44
496.584	419.44
496.687	472.44
496.791	500.44
496.894	442.44
496.997	464.44
497.1	475.44
497.204	520.44
497.307	370.44
497.41	617.44
497.513	739.44
497.616	451.44
497.719	428.44
497.823	481.44
497.926	471.44
498.029	487.44
498.132	525.44
498.235	567.44
498.338	550.44
498.441	663.44
498.544	549.44
498.647	585.44
498.75	712.44
498.853	851.44
498.956	666.44
499.059	829.44
499.163	720.44
499.266	718.44
499.369	780.44
499.471	828.44
499.574	935.44
499.677	896.44
499.78	962.44
499.883	1051.44
499.986	1121.44
500.089	1141.44
500.192	1215.44
500.295	1177.44
500.398	1123.44
500.501	1194.44
500.604	1042.44
500.707	964.44
500.809	997.44
500.912	1051.44
501.015	949.44
501.118	831.44
501.221	898.44
501.324	726.44
501.426	744.44
501.529	680.44
501.632	609.44
501.735	535.44
501.837	579.44
501.94	541.44
502.043	490.44
502.146	565.44
502.248	576.44
502.351	467.44
502.454	518.44
502.557	474.44
502.659	507.44
502.762	443.44
502.865	478.44
502.967	388.44
503.07	449.44
503.173	484.44
503.275	428.44
503.378	424.44
503.48	415.44
503.583	527.44
503.686	401.44
503.788	690.44
503.891	502.44
503.993	627.44
504.096	418.44
504.198	481.44
504.301	377.44
504.403	413.44
504.506	474.44
504.608	382.44
504.711	384.44
504.813	500.44
504.916	450.44
505.018	359.44
505.121	315.44
505.223	445.44
505.326	332.44
505.428	458.44
505.531	408.44
505.633	353.44
505.735	300.44
505.838	377.44
505.94	376.44
506.042	268.44
506.145	291.44
506.247	408.44
506.35	260.44
506.452	409.44
506.554	418.44
506.656	361.44
506.759	271.44
506.861	391.44
506.963	330.44
507.066	355.44
507.168	483.44
507.27	330.44
507.372	255.44
507.475	295.44
507.577	330.44
507.679	277.44
507.781	227.44
507.883	324.44
507.986	255.44
508.088	297.44
508.19	390.44
508.292	330.44
508.394	237.44
508.496	239.44
508.598	276.44
508.701	290.44
508.803	322.44
508.905	298.44
509.007	283.44
509.109	375.44
509.211	348.44
509.313	263.44
509.415	299.44
509.517	368.44
509.619	244.44
509.721	288.44
509.823	316.44
509.925	418.44
510.027	277.44
510.129	346.44
510.231	334.44
510.333	236.44
510.435	239.44
510.537	350.44
510.639	357.44
510.741	272.44
510.843	412.44
510.945	315.44
511.047	339.44
511.148	353.44
511.25	279.44
511.352	295.44
511.454	271.44
511.556	342.44
511.658	236.44
511.76	334.44
511.861	434.44
511.963	223.44
512.065	246.44
512.167	306.44
512.268	466.44
512.37	325.44
512.472	320.44
512.574	365.44
512.676	381.44
512.777	279.44
512.879	289.44
512.981	252.44
513.082	278.44
513.184	298.44
513.286	737.44
513.387	386.44
513.489	473.44
513.591	370.44
513.692	369.44
513.794	356.44
513.896	234.44
513.997	237.44
514.099	281.44
514.2	332.44
514.302	314.44
514.404	268.44
514.505	267.44
514.607	338.44
514.708	292.44
514.81	379.44
514.911	354.44
515.013	377.44
515.114	410.44
515.216	307.44
515.317	305.44
515.419	296.44
515.52	359.44
515.622	336.44
515.723	371.44
515.825	483.44
515.926	342.44
516.027	325.44
516.129	362.44
516.23	344.44
516.332	361.44
516.433	361.44
516.534	465.44
516.636	388.44
516.737	340.44
516.838	1383.44
516.94	526.44
517.041	402.44
517.142	564.44
517.244	540.44
517.345	437.44
517.446	535.44
517.547	507.44
517.649	410.44
517.75	485.44
517.851	483.44
517.952	692.44
518.054	507.44
518.155	602.44
518.256	398.44
518.357	551.44
518.458	423.44
518.56	325.44
518.661	407.44
518.762	491.44
518.863	508.44
518.964	479.44
519.065	382.44
519.166	372.44
519.268	298.44
519.369	613.44
519.47	423.44
519.571	411.44
519.672	343.44
519.773	373.44
519.874	388.44
519.975	418.44
520.076	410.44
520.177	428.44
520.278	336.44
520.379	444.44
520.48	307.44
520.581	333.44
520.682	341.44
520.783	376.44
520.884	432.44
520.985	346.44
521.086	419.44
521.187	421.44
521.288	368.44
521.389	439.44
521.489	339.44
521.59	321.44
521.691	396.44
521.792	312.44
521.893	467.44
521.994	519.44
522.095	421.44
522.195	432.44
522.296	486.44
522.397	506.44
522.498	369.44
522.599	284.44
522.699	418.44
522.8	382.44
522.901	470.44
523.002	379.44
523.102	591.44
523.203	379.44
523.304	540.44
523.405	380.44
523.505	375.44
523.606	415.44
523.707	488.44
523.807	387.44
523.908	357.44
524.009	559.44
524.109	428.44
524.21	363.44
524.31	500.44
524.411	522.44
524.512	514.44
524.612	443.44
524.713	554.44
524.813	370.44
524.914	627.44
525.014	5310.44
525.115	850.44
525.216	322.44
525.316	446.44
525.417	423.44
525.517	372.44
525.618	428.44
525.718	334.44
525.819	326.44
525.919	426.44
526.019	387.44
526.12	458.44
526.22	332.44
526.321	392.44
526.421	316.44
526.522	344.44
526.622	355.44
526.722	325.44
526.823	365.44
526.923	394.44
527.023	492.44
527.124	339.44
527.224	442.44
527.324	353.44
527.425	431.44
527.525	317.44
527.625	384.44
527.726	357.44
527.826	472.44
527.926	440.44
528.026	406.44
528.127	338.44
528.227	395.44
528.327	503.44
528.427	400.44
528.528	460.44
528.628	508.44
528.728	370.44
528.828	479.44
528.928	538.44
529.029	405.44
529.129	413.44
529.229	477.44
529.329	400.44
529.429	495.44
529.529	551.44
529.629	449.44
529.729	401.44
529.829	527.44
529.93	438.44
530.03	464.44
530.13	456.44
530.23	460.44
530.33	509.44
530.43	378.44
530.53	439.44
530.63	420.44
530.73	314.44
530.83	348.44
530.93	371.44
531.03	328.44
531.13	439.44
531.23	356.44
531.33	407.44
531.429	432.44
531.529	608.44
531.629	399.44
531.729	316.44
531.829	313.44
531.929	348.44
532.029	391.44
532.129	364.44
532.229	440.44
532.328	375.44
532.428	352.44
532.528	326.44
532.628	283.44
532.728	348.44
532.827	358.44
532.927	394.44
533.027	367.44
533.127	547.44
533.227	421.44
533.326	400.44
533.426	374.44
533.526	492.44
533.625	518.44
533.725	667.44
533.825	513.44
533.924	337.44
534.024	295.44
534.124	348.44
534.223	348.44
534.323	721.44
534.423	440.44
534.522	391.44
534.622	281.44
534.722	378.44
534.821	425.44
534.921	312.44
535.02	288.44
535.12	466.44
535.219	468.44
535.319	447.44
535.419	488.44
535.518	355.44
535.618	387.44
535.717	492.44
535.817	289.44
535.916	251.44
536.016	411.44
536.115	354.44
536.215	290.44
536.314	248.44
536.413	314.44
536.513	307.44
536.612	325.44
536.712	316.44
536.811	313.44
536.91	263.44
537.01	318.44
537.109	321.44
537.209	318.44
537.308	268.44
537.407	358.44
537.507	350.44
537.606	277.44
537.705	379.44
537.805	339.44
537.904	217.44
538.003	366.44
538.102	438.44
538.202	321.44
538.301	418.44
538.4	369.44
538.499	307.44
538.599	376.44
538.698	561.44
538.797	303.44
538.896	418.44
538.995	378.44
539.095	305.44
539.194	549.44
539.293	378.44
539.392	298.44
539.491	347.44
539.59	365.44
539.689	453.44
539.789	371.44
539.888	236.44
539.987	228.44
540.086	293.44
540.185	375.44
540.284	370.44
540.383	336.44
540.482	303.44
540.581	348.44
540.68	298.44
540.779	364.44
540.878	369.44
540.977	409.44
541.076	328.44
541.175	397.44
541.274	581.44
541.373	421.44
541.472	356.44
541.571	327.44
541.67	1611.44
541.769	539.44
541.868	402.44
541.966	406.44
542.065	346.44
542.164	395.44
542.263	276.44
542.362	312.44
542.461	368.44
542.56	412.44
542.658	411.44
542.757	344.44
542.856	298.44
542.955	260.44
543.054	257.44
543.152	470.44
543.251	325.44
543.35	448.44
543.449	436.44
543.547	326.44
543.646	286.44
543.745	368.44
543.843	431.44
543.942	396.44
544.041	297.44
544.14	389.44
544.238	334.44
544.337	529.44
544.436	448.44
544.534	464.44
544.633	370.44
544.731	367.44
544.83	375.44
544.929	377.44
545.027	359.44
545.126	333.44
545.224	411.44
545.323	339.44
545.421	394.44
545.52	346.44
545.619	380.44
545.717	434.44
545.816	419.44
545.914	424.44
546.013	653.44
546.111	561.44
546.209	357.44
546.308	339.44
546.406	343.44
546.505	510.44
546.603	408.44
546.702	390.44
546.8	349.44
546.899	326.44
546.997	408.44
547.095	428.44
547.194	396.44
547.292	403.44
547.39	480.44
547.489	332.44
547.587	647.44
547.685	388.44
547.784	606.44
547.882	437.44
547.98	394.44
548.079	406.44
548.177	359.44
548.275	348.44
548.373	480.44
548.472	324.44
548.57	391.44
548.668	501.44
548.766	295.44
548.864	468.44
548.963	387.44
549.061	476.44
549.159	327.44
549.257	475.44
549.355	347.44
549.454	336.44
549.552	467.44
549.65	358.44
549.748	312.44
549.846	402.44
549.944	344.44
550.042	310.44
550.14	343.44
550.238	382.44
550.336	283.44
550.434	314.44
550.532	359.44
550.631	409.44
550.729	386.44
550.827	447.44
550.925	325.44
551.023	314.44
551.121	323.44
551.218	318.44
551.316	228.44
551.414	304.44
551.512	294.44
551.61	323.44
551.708	377.44
551.806	452.44
551.904	327.44
552.002	263.44
552.1	357.44
552.198	290.44
552.296	461.44
552.393	504.44
552.491	529.44
552.589	457.44
552.687	482.44
552.785	471.44
552.882	496.44
552.98	653.44
553.078	569.44
553.176	503.44
553.274	338.44
553.371	440.44
553.469	410.44
553.567	351.44
553.665	371.44
553.762	793.44
553.86	475.44
553.958	451.44
554.055	425.44
554.153	489.44
554.251	425.44
554.348	466.44
554.446	353.44
554.544	358.44
554.641	719.44
554.739	347.44
554.837	380.44
554.934	411.44
555.032	368.44
555.129	290.44
555.227	569.44
555.324	1754.44
555.422	528.44
555.519	376.44
555.617	389.44
555.715	236.44
555.812	2037.44
555.91	496.44
556.007	408.44
556.105	334.44
556.202	400.44
556.299	321.44
556.397	324.44
556.494	311.44
556.592	348.44
556.689	366.44
556.787	372.44
556.884	315.44
556.981	296.44
557.079	277.44
557.176	358.44
557.273	356.44
557.371	409.44
557.468	395.44
557.566	397.44
557.663	290.44
557.76	344.44
557.857	348.44
557.955	338.44
558.052	412.44
558.149	511.44
558.247	505.44
558.344	310.44
558.441	311.44
558.538	292.44
558.636	295.44
558.733	415.44
558.83	379.44
558.927	340.44
559.024	353.44
559.122	338.44
559.219	315.44
559.316	392.44
559.413	492.44
559.51	309.44
559.607	308.44
559.704	444.44
559.801	386.44
559.899	322.44
559.996	599.44
560.093	385.44
560.19	282.44
560.287	420.44
560.384	553.44
560.481	331.44
560.578	314.44
560.675	345.44
560.772	355.44
560.869	345.44
560.966	483.44
561.063	318.44
561.16	432.44
561.257	419.44
561.354	320.44
561.451	321.44
561.548	387.44
561.645	580.44
561.742	341.44
561.838	293.44
561.935	403.44
562.032	327.44
562.129	328.44
562.226	382.44
562.323	295.44
562.42	383.44
562.516	334.44
562.613	299.44
562.71	325.44
562.807	1080.44
562.904	368.44
563	331.44
563.097	299.44
563.194	343.44
563.291	305.44
563.387	280.44
563.484	377.44
563.581	338.44
563.678	275.44
563.774	725.44
563.871	410.44
563.968	339.44
564.064	342.44
564.161	350.44
564.258	326.44
564.354	413.44
564.451	435.44
564.548	370.44
564.644	332.44
564.741	350.44
564.837	309.44
564.934	311.44
565.031	323.44
565.127	373.44
565.224	369.44
565.32	487.44
565.417	411.44
565.513	399.44
565.61	399.44
565.706	537.44
565.803	453.44
565.899	392.44
565.996	443.44
566.092	401.44
566.189	386.44
566.285	477.44
566.382	466.44
566.478	506.44
566.574	553.44
566.671	477.44
566.767	440.44
566.864	466.44
566.96	560.44
567.056	450.44
567.153	641.44
567.249	572.44
567.345	587.44
567.442	655.44
567.538	623.44
567.634	597.44
567.731	537.44
567.827	576.44
567.923	678.44
568.019	448.44
568.116	409.44
568.212	446.44
568.308	507.44
568.404	448.44
568.501	443.44
568.597	438.44
568.693	339.44
568.789	1086.44
568.885	413.44
568.982	354.44
569.078	333.44
569.174	440.44
569.27	287.44
569.366	397.44
569.462	418.44
569.558	298.44
569.655	343.44
569.751	329.44
569.847	281.44
569.943	292.44
570.039	273.44
570.135	793.44
570.231	282.44
570.327	469.44
570.423	429.44
570.519	344.44
570.615	311.44
570.711	412.44
570.807	389.44
570.903	258.44
570.999	397.44
571.095	356.44
571.191	305.44
571.287	383.44
571.383	384.44
571.479	298.44
571.574	406.44
571.67	357.44
571.766	454.44
571.862	322.44
571.958	303.44
572.054	367.44
572.15	241.44
572.246	260.44
572.341	367.44
572.437	300.44
572.533	316.44
572.629	307.44
572.725	260.44
572.82	239.44
572.916	407.44
573.012	297.44
573.108	338.44
573.203	324.44
573.299	190.44
573.395	202.44
573.49	228.44
573.586	236.44
573.682	241.44
573.778	419.44
573.873	236.44
573.969	220.44
574.065	246.44
574.16	296.44
574.256	242.44
574.351	326.44
574.447	250.44
574.543	244.44
574.638	346.44
574.734	331.44
574.829	460.44
574.925	289.44
575.02	249.44
575.116	268.44
575.212	258.44
575.307	390.44
575.403	299.44
575.498	298.44
575.594	263.44
575.689	346.44
575.784	314.44
575.88	287.44
575.975	367.44
576.071	224.44
576.166	216.44
576.262	252.44
576.357	189.44
576.452	388.44
576.548	298.44
576.643	260.44
576.739	303.44
576.834	258.44
576.929	330.44
577.025	948.44
577.12	265.44
577.215	251.44
577.311	296.44
577.406	334.44
577.501	458.44
577.597	236.44
577.692	377.44
577.787	321.44
577.882	251.44
577.978	274.44
578.073	209.44
578.168	234.44
578.263	202.44
578.358	231.44
578.454	224.44
578.549	162.44
578.644	158.44
578.739	292.44
578.834	216.44
578.929	180.44
579.025	207.44
579.12	301.44
579.215	444.44
579.31	409.44
579.405	249.44
579.5	322.44
579.595	253.44
579.69	191.44
579.785	198.44
579.88	190.44
579.975	224.44
580.07	200.44
580.165	226.44
580.26	316.44
580.355	265.44
580.45	188.44
580.545	190.44
580.64	252.44
580.735	296.44
580.83	260.44
580.925	202.44
581.02	203.44
581.115	179.44
581.21	163.44
581.305	252.44
581.4	198.44
581.495	196.44
581.589	236.44
581.684	156.44
581.779	265.44
581.874	274.44
581.969	186.44
582.064	135.44
582.158	183.44
582.253	155.44
582.348	215.44
582.443	216.44
582.537	249.44
582.632	399.44
582.727	247.44
582.822	189.44
582.916	134.44
583.011	204.44
583.106	330.44
583.201	163.44
583.295	193.44
583.39	168.44
583.485	113.44
583.579	2076.44
583.674	463.44
583.769	477.44
583.863	229.44
583.958	206.44
584.052	196.44
584.147	176.44
584.242	141.44
584.336	242.44
584.431	359.44
584.525	200.44
584.62	414.44
584.714	250.44
584.809	179.44
584.903	234.44
584.998	256.44
585.092	106.44
585.187	187.44
585.281	152.44
585.376	171.44
585.47	227.44
585.565	261.44
585.659	102.44
585.754	169.44
585.848	233.44
585.942	127.44
586.037	135.44
586.131	2526.44
586.226	440.44
586.32	233.44
586.414	131.44
586.509	329.44
586.603	249.44
586.697	170.44
586.792	171.44
586.886	123.44
586.98	257.44
587.075	182.44
587.169	165.44
587.263	367.44
587.357	229.44
587.452	151.44
587.546	262.44
587.64	108.44
587.734	211.44
587.829	176.44
587.923	129.44
588.017	204.44
588.111	150.44
588.205	224.44
588.3	147.44
588.394	103.44
588.488	102.44
588.582	223.44
588.676	232.44
588.77	293.44
588.864	671.44
588.958	611.44
589.052	301.44
589.147	333.44
589.241	284.44
589.335	218.44
589.429	467.44
589.523	511.44
589.617	370.44
589.711	247.44
589.805	267.44
589.899	284.44
589.993	162.44
590.087	94.44
590.181	126.44
590.275	209.44
590.369	146.44
590.462	118.44
590.556	113.44
590.65	120.44
590.744	176.44
590.838	106.44
590.932	117.44
591.026	232.44
591.12	355.44
591.214	154.44
591.307	170.44
591.401	157.44
591.495	219.44
591.589	161.44
591.683	205.44
591.777	165.44
591.87	546.44
591.964	262.44
592.058	152.44
592.152	220.44
592.245	176.44
592.339	293.44
592.433	314.44
592.527	249.44
592.62	192.44
592.714	201.44
592.808	251.44
592.901	249.44
592.995	155.44
593.089	403.44
593.182	271.44
593.276	163.44
593.37	160.44
593.463	148.44
593.557	201.44
593.65	160.44
593.744	191.44
593.837	333.44
593.931	156.44
594.025	3199.44
594.118	561.44
594.212	170.44
594.305	127.44
594.399	234.44
594.492	519.44
594.586	186.44
594.679	172.44
594.773	155.44
594.866	205.44
594.96	217.44
595.053	181.44
595.146	127.44
595.24	116.44
595.333	154.44
595.427	71.44
595.52	117.44
595.614	315.44
595.707	171.44
595.8	141.44
595.894	213.44
595.987	112.44
596.08	91.44
596.174	501.44
596.267	303.44
596.36	271.44
596.454	323.44
596.547	290.44
596.64	107.44
596.733	106.44
596.827	274.44
596.92	158.44
597.013	82.44
597.106	98.44
597.2	131.44
597.293	128.44
597.386	397.44
597.479	233.44
597.572	191.44
597.666	147.44
597.759	163.44
597.852	229.44
597.945	102.44
598.038	169.44
598.131	135.44
598.224	129.44
598.317	223.44
598.411	187.44
598.504	66.44
598.597	169.44
598.69	136.44
598.783	87.44
598.876	159.44
598.969	187.44
599.062	27.44
599.155	160.44
599.248	141.44
599.341	168.44
599.434	90.44
599.527	167.44
599.62	126.44
599.713	75.44
599.806	192.44
599.899	345.44
599.991	116.44
600.084	333.44
600.177	171.44
600.27	102.44
600.363	281.44
600.456	138.44
600.549	180.44
600.642	67.44
600.734	117.44
600.827	138.44
600.92	268.44
601.013	161.44
601.106	250.44
601.199	100.44
601.291	77.44
601.384	205.44
601.477	321.44
601.57	188.44
601.662	137.44
601.755	111.44
601.848	153.44
601.94	103.44
602.033	281.44
602.126	117.44
602.219	116.44
602.311	294.44
602.404	147.44
602.497	92.44
602.589	173.44
602.682	186.44
602.774	183.44
602.867	176.44
602.96	131.44
603.052	130.44
603.145	106.44
603.237	145.44
603.33	134.44
603.422	269.44
603.515	139.44
603.608	112.44
603.7	138.44
603.793	185.44
603.885	155.44
603.978	85.44
604.07	171.44
604.163	112.44
604.255	135.44
604.347	79.44
604.44	96.44
604.532	148.44
604.625	140.44
604.717	143.44
604.81	163.44
604.902	111.44
604.994	113.44
605.087	52.44
605.179	127.44
605.271	166.44
605.364	133.44
605.456	183.44
605.548	95.44
605.641	147.44
605.733	89.44
605.825	131.44
605.918	122.44
606.01	236.44
606.102	627.44
606.194	239.44
606.287	268.44
606.379	100.44
606.471	139.44
606.563	151.44
606.655	179.44
606.748	190.44
606.84	138.44
606.932	183.44
607.024	104.44
607.116	133.44
607.208	115.44
607.301	164.44
607.393	143.44
607.485	119.44
607.577	156.44
607.669	258.44
607.761	191.44
607.853	381.44
607.945	107.44
608.037	76.44
608.129	79.44
608.221	66.44
608.313	157.44
608.405	160.44
608.497	123.44
608.589	134.44
608.681	135.44
608.773	183.44
608.865	155.44
608.957	184.44
609.049	72.44
609.141	203.44
609.233	139.44
609.325	68.44
609.417	85.44
609.509	267.44
609.601	267.44
609.693	217.44
609.784	138.44
609.876	104.44
609.968	141.44
610.06	2418.44
610.152	401.44
610.244	359.44
610.335	130.44
610.427	148.44
610.519	131.44
610.611	132.44
610.702	143.44
610.794	168.44
610.886	214.44
610.978	198.44
611.069	626.44
611.161	169.44
611.253	268.44
611.344	127.44
611.436	43.44
611.528	210.44
611.62	117.44
611.711	134.44
611.803	97.44
611.894	112.44
611.986	76.44
612.078	120.44
612.169	168.44
612.261	107.44
612.352	100.44
612.444	93.44
612.536	217.44
612.627	126.44
612.719	73.44
612.81	82.44
612.902	37.44
612.993	140.44
613.085	150.44
613.176	31.44
613.268	66.44
613.359	110.44
613.451	68.44
613.542	77.44
613.634	87.44
613.725	116.44
613.816	175.44
613.908	69.44
613.999	114.44
614.091	17.44
614.182	-6.56
614.273	112.44
614.365	20.44
614.456	-25.56
614.547	71.44
614.639	-31.56
614.73	34.44
614.821	146.44
614.913	-18.56
615.004	-38.56
615.095	1.44
615.187	-3.56
