Data from 35g_HRC06701__40__467.txt Node

Date: Thu Apr 18 02:32:12 CDT 2024
User: Estudiantes 2
Spectrometer: HR+C0670
Trigger mode: 4
Integration Time (sec): 1.000000E0
Scans to average: 1
Electric dark correction enabled: true
Nonlinearity correction enabled: false
Boxcar width: 0
XAxis mode: Wavelengths
Number of Pixels in Spectrum: 2048
>>>>>Begin Spectral Data<<<<<
407.81	-134.81
407.921	-134.81
408.032	-134.81
408.143	-134.81
408.254	-159.81
408.365	32.19
408.476	276.19
408.587	-16.81
408.699	-13.81
408.81	16.19
408.921	-55.81
409.032	-47.81
409.143	61.19
409.254	18.19
409.365	90.19
409.476	-14.81
409.587	21.19
409.698	63.19
409.809	105.19
409.92	-2.81
410.031	-4.81
410.142	77.19
410.253	42.19
410.364	7.19
410.475	187.19
410.585	1198.19
410.696	1287.19
410.807	1223.19
410.918	1255.19
411.029	1352.19
411.14	1284.19
411.251	1274.19
411.362	1380.19
411.472	1321.19
411.583	1313.19
411.694	1432.19
411.805	1278.19
411.916	1313.19
412.026	1436.19
412.137	1351.19
412.248	1336.19
412.359	1385.19
412.47	1242.19
412.58	1189.19
412.691	1309.19
412.802	1295.19
412.912	1221.19
413.023	1301.19
413.134	1312.19
413.245	1359.19
413.355	1286.19
413.466	1297.19
413.577	1233.19
413.687	1392.19
413.798	1197.19
413.909	1328.19
414.019	1285.19
414.13	1340.19
414.24	1352.19
414.351	1359.19
414.462	1500.19
414.572	1417.19
414.683	1410.19
414.793	1280.19
414.904	1702.19
415.014	1322.19
415.125	1278.19
415.235	1384.19
415.346	1461.19
415.456	1447.19
415.567	1300.19
415.677	1367.19
415.788	1365.19
415.898	1247.19
416.009	1350.19
416.119	1339.19
416.23	1284.19
416.34	1310.19
416.45	1324.19
416.561	1945.19
416.671	1429.19
416.782	1295.19
416.892	1298.19
417.002	1387.19
417.113	1454.19
417.223	1367.19
417.333	1317.19
417.444	1407.19
417.554	1399.19
417.664	1502.19
417.775	1320.19
417.885	1404.19
417.995	1403.19
418.106	1615.19
418.216	1488.19
418.326	1478.19
418.436	1493.19
418.547	1533.19
418.657	1445.19
418.767	1590.19
418.877	1594.19
418.987	1529.19
419.098	1499.19
419.208	1539.19
419.318	1618.19
419.428	1547.19
419.538	1497.19
419.648	1618.19
419.759	1576.19
419.869	1620.19
419.979	1556.19
420.089	1524.19
420.199	1511.19
420.309	1617.19
420.419	1581.19
420.529	1584.19
420.639	1926.19
420.749	1616.19
420.859	1645.19
420.969	1624.19
421.079	1887.19
421.189	1686.19
421.299	1668.19
421.409	1569.19
421.519	1671.19
421.629	1716.19
421.739	1663.19
421.849	1559.19
421.959	1565.19
422.069	1693.19
422.179	1657.19
422.289	1677.19
422.399	1782.19
422.509	1891.19
422.619	4298.19
422.729	2016.19
422.838	1736.19
422.948	1803.19
423.058	1826.19
423.168	1878.19
423.278	1895.19
423.388	1902.19
423.498	1999.19
423.607	1914.19
423.717	2221.19
423.827	2191.19
423.937	2022.19
424.046	2011.19
424.156	2077.19
424.266	2036.19
424.376	2239.19
424.485	2135.19
424.595	1994.19
424.705	1952.19
424.815	1986.19
424.924	2453.19
425.034	2080.19
425.144	1866.19
425.253	2087.19
425.363	2216.19
425.473	2089.19
425.582	1888.19
425.692	1965.19
425.801	1990.19
425.911	2187.19
426.021	2087.19
426.13	2192.19
426.24	2266.19
426.349	2136.19
426.459	2099.19
426.568	2043.19
426.678	2195.19
426.787	2144.19
426.897	2087.19
427.006	2156.19
427.116	2238.19
427.225	2160.19
427.335	2218.19
427.444	2158.19
427.554	2196.19
427.663	2198.19
427.773	2122.19
427.882	2189.19
427.992	2091.19
428.101	2224.19
428.21	2214.19
428.32	2241.19
428.429	2169.19
428.539	2596.19
428.648	2294.19
428.757	2303.19
428.867	2321.19
428.976	2470.19
429.085	2330.19
429.195	2320.19
429.304	2410.19
429.413	2355.19
429.523	2472.19
429.632	2434.19
429.741	2340.19
429.85	2353.19
429.96	2448.19
430.069	2355.19
430.178	2396.19
430.287	2712.19
430.397	2449.19
430.506	2452.19
430.615	2458.19
430.724	2600.19
430.833	2542.19
430.943	2556.19
431.052	2570.19
431.161	2518.19
431.27	2614.19
431.379	2666.19
431.488	2850.19
431.597	2736.19
431.706	2822.19
431.816	2759.19
431.925	2688.19
432.034	2670.19
432.143	2801.19
432.252	2700.19
432.361	2736.19
432.47	2806.19
432.579	2682.19
432.688	2661.19
432.797	2827.19
432.906	2719.19
433.015	2790.19
433.124	3152.19
433.233	2820.19
433.342	2793.19
433.451	2826.19
433.56	2835.19
433.669	2770.19
433.778	2804.19
433.886	2954.19
433.995	2890.19
434.104	3124.19
434.213	3051.19
434.322	3017.19
434.431	3271.19
434.54	3241.19
434.649	3424.19
434.757	3302.19
434.866	3210.19
434.975	3277.19
435.084	3063.19
435.193	3058.19
435.301	3329.19
435.41	3251.19
435.519	3394.19
435.628	2905.19
435.737	2720.19
435.845	2685.19
435.954	2624.19
436.063	2666.19
436.171	2623.19
436.28	2698.19
436.389	2857.19
436.498	2680.19
436.606	2718.19
436.715	2910.19
436.823	2553.19
436.932	2540.19
437.041	2615.19
437.149	2604.19
437.258	2431.19
437.367	2491.19
437.475	2461.19
437.584	2713.19
437.692	2470.19
437.801	4088.19
437.91	2543.19
438.018	2307.19
438.127	2391.19
438.235	2445.19
438.344	2430.19
438.452	2442.19
438.561	2341.19
438.669	2439.19
438.778	2329.19
438.886	2391.19
438.995	2374.19
439.103	2369.19
439.212	2466.19
439.32	2406.19
439.428	2336.19
439.537	2450.19
439.645	2516.19
439.754	2523.19
439.862	2483.19
439.97	2418.19
440.079	2465.19
440.187	2480.19
440.295	2602.19
440.404	2448.19
440.512	2483.19
440.62	2662.19
440.729	2607.19
440.837	2693.19
440.945	3413.19
441.054	2790.19
441.162	2756.19
441.27	2938.19
441.378	2911.19
441.487	2898.19
441.595	3273.19
441.703	2975.19
441.811	2846.19
441.92	2857.19
442.028	2698.19
442.136	2780.19
442.244	2721.19
442.352	2781.19
442.461	2554.19
442.569	2627.19
442.677	2697.19
442.785	2761.19
442.893	2678.19
443.001	2661.19
443.109	2693.19
443.217	2682.19
443.325	2642.19
443.434	3444.19
443.542	3000.19
443.65	2807.19
443.758	3040.19
443.866	2793.19
443.974	3186.19
444.082	3093.19
444.19	3104.19
444.298	3201.19
444.406	3399.19
444.514	3445.19
444.622	3472.19
444.73	3457.19
444.838	3330.19
444.946	3221.19
445.054	3069.19
445.161	3097.19
445.269	2930.19
445.377	2895.19
445.485	2977.19
445.593	2773.19
445.701	2925.19
445.809	2800.19
445.917	2807.19
446.025	2665.19
446.132	2814.19
446.24	2831.19
446.348	2759.19
446.456	2646.19
446.564	2665.19
446.671	2669.19
446.779	2629.19
446.887	2662.19
446.995	2577.19
447.102	2701.19
447.21	2647.19
447.318	2730.19
447.426	2577.19
447.533	2809.19
447.641	3915.19
447.749	2664.19
447.856	2575.19
447.964	2656.19
448.072	2743.19
448.179	2586.19
448.287	2690.19
448.395	2696.19
448.502	2494.19
448.61	2558.19
448.718	2590.19
448.825	2630.19
448.933	2659.19
449.04	2673.19
449.148	2629.19
449.256	2637.19
449.363	2697.19
449.471	2671.19
449.578	2774.19
449.686	2724.19
449.793	2805.19
449.901	2656.19
450.008	2769.19
450.116	2868.19
450.223	2823.19
450.331	2891.19
450.438	2902.19
450.546	2921.19
450.653	2988.19
450.76	3061.19
450.868	3021.19
450.975	3194.19
451.083	3007.19
451.19	3105.19
451.297	3059.19
451.405	3155.19
451.512	3018.19
451.619	3152.19
451.727	3206.19
451.834	3069.19
451.941	3113.19
452.049	3105.19
452.156	3157.19
452.263	3172.19
452.371	3166.19
452.478	3148.19
452.585	3298.19
452.692	3103.19
452.8	3182.19
452.907	3369.19
453.014	3230.19
453.121	3246.19
453.229	3316.19
453.336	3378.19
453.443	3382.19
453.55	3258.19
453.657	3326.19
453.765	3399.19
453.872	3305.19
453.979	3454.19
454.086	3415.19
454.193	3390.19
454.3	3418.19
454.407	3541.19
454.514	3570.19
454.621	3483.19
454.729	3392.19
454.836	3461.19
454.943	3528.19
455.05	3507.19
455.157	3584.19
455.264	3466.19
455.371	3539.19
455.478	3543.19
455.585	3918.19
455.692	3632.19
455.799	3748.19
455.906	3539.19
456.013	3562.19
456.12	3596.19
456.227	3645.19
456.334	3687.19
456.44	3769.19
456.547	3700.19
456.654	3648.19
456.761	3717.19
456.868	3826.19
456.975	3857.19
457.082	3761.19
457.189	3635.19
457.296	3800.19
457.402	3762.19
457.509	3711.19
457.616	3877.19
457.723	4252.19
457.83	3960.19
457.936	4012.19
458.043	4445.19
458.15	4130.19
458.257	4282.19
458.363	4274.19
458.47	4330.19
458.577	4473.19
458.684	4442.19
458.79	4788.19
458.897	4762.19
459.004	4902.19
459.11	4864.19
459.217	4908.19
459.324	4936.19
459.43	5184.19
459.537	5412.19
459.644	5209.19
459.75	5290.19
459.857	5872.19
459.964	5592.19
460.07	5619.19
460.177	5822.19
460.283	5749.19
460.39	5938.19
460.496	5748.19
460.603	5915.19
460.71	5781.19
460.816	5684.19
460.923	5668.19
461.029	5602.19
461.136	5751.19
461.242	5759.19
461.349	5780.19
461.455	5763.19
461.562	6147.19
461.668	5933.19
461.774	5768.19
461.881	6036.19
461.987	6148.19
462.094	6265.19
462.2	6409.19
462.307	6350.19
462.413	6290.19
462.519	6589.19
462.626	7078.19
462.732	7173.19
462.838	7567.19
462.945	7899.19
463.051	7748.19
463.157	7394.19
463.264	7218.19
463.37	6804.19
463.476	6657.19
463.583	6621.19
463.689	6549.19
463.795	6549.19
463.901	6767.19
464.008	7054.19
464.114	6785.19
464.22	6690.19
464.326	6768.19
464.433	6402.19
464.539	6265.19
464.645	6111.19
464.751	6317.19
464.857	5855.19
464.963	5610.19
465.07	5516.19
465.176	5207.19
465.282	5068.19
465.388	5094.19
465.494	4763.19
465.6	4733.19
465.706	4592.19
465.812	4544.19
465.918	4633.19
466.024	4481.19
466.131	4460.19
466.237	4183.19
466.343	4183.19
466.449	4073.19
466.555	4031.19
466.661	3978.19
466.767	3995.19
466.873	3970.19
466.979	4086.19
467.085	3994.19
467.191	4069.19
467.296	3974.19
467.402	3903.19
467.508	3917.19
467.614	3972.19
467.72	3762.19
467.826	3725.19
467.932	3669.19
468.038	3538.19
468.144	3664.19
468.25	3573.19
468.355	3617.19
468.461	3741.19
468.567	3534.19
468.673	3545.19
468.779	3577.19
468.885	3619.19
468.99	3462.19
469.096	3529.19
469.202	3800.19
469.308	3645.19
469.413	3734.19
469.519	3700.19
469.625	3686.19
469.731	3713.19
469.836	3767.19
469.942	3992.19
470.048	3811.19
470.153	3870.19
470.259	3732.19
470.365	3889.19
470.47	3873.19
470.576	3760.19
470.682	3672.19
470.787	3645.19
470.893	3629.19
470.999	3587.19
471.104	3509.19
471.21	3454.19
471.315	3248.19
471.421	3329.19
471.527	3519.19
471.632	3346.19
471.738	3322.19
471.843	3178.19
471.949	3264.19
472.054	3207.19
472.16	3126.19
472.265	3139.19
472.371	3078.19
472.476	3079.19
472.582	3150.19
472.687	3107.19
472.793	2994.19
472.898	3060.19
473.003	2978.19
473.109	2956.19
473.214	2947.19
473.32	2977.19
473.425	3011.19
473.53	3000.19
473.636	3009.19
473.741	2947.19
473.847	2903.19
473.952	2962.19
474.057	3014.19
474.163	3017.19
474.268	2964.19
474.373	3078.19
474.478	2872.19
474.584	2945.19
474.689	3058.19
474.794	2994.19
474.9	3258.19
475.005	3041.19
475.11	3164.19
475.215	2972.19
475.321	2947.19
475.426	3160.19
475.531	3191.19
475.636	3022.19
475.741	2979.19
475.846	3139.19
475.952	3267.19
476.057	3126.19
476.162	3198.19
476.267	3241.19
476.372	3537.19
476.477	3116.19
476.582	3215.19
476.687	3149.19
476.793	3215.19
476.898	3167.19
477.003	3223.19
477.108	3165.19
477.213	3278.19
477.318	3257.19
477.423	3342.19
477.528	3505.19
477.633	3498.19
477.738	3561.19
477.843	3466.19
477.948	3606.19
478.053	3624.19
478.158	3640.19
478.263	3635.19
478.368	3736.19
478.473	3872.19
478.578	3842.19
478.682	3684.19
478.787	3963.19
478.892	3775.19
478.997	3911.19
479.102	3857.19
479.207	3798.19
479.312	3950.19
479.417	3967.19
479.521	3921.19
479.626	4054.19
479.731	3991.19
479.836	4021.19
479.941	4180.19
480.045	4260.19
480.15	4333.19
480.255	4296.19
480.36	4202.19
480.465	4319.19
480.569	4407.19
480.674	4077.19
480.779	4008.19
480.883	4073.19
480.988	4139.19
481.093	4061.19
481.197	4065.19
481.302	4002.19
481.407	4003.19
481.511	5388.19
481.616	4021.19
481.721	4029.19
481.825	4263.19
481.93	3910.19
482.035	3959.19
482.139	4134.19
482.244	4000.19
482.348	4058.19
482.453	4115.19
482.557	4257.19
482.662	4152.19
482.767	4112.19
482.871	4214.19
482.976	4168.19
483.08	4179.19
483.185	4495.19
483.289	4296.19
483.394	4366.19
483.498	4408.19
483.603	4321.19
483.707	4457.19
483.811	4527.19
483.916	4661.19
484.02	4609.19
484.125	4634.19
484.229	4737.19
484.333	4786.19
484.438	4709.19
484.542	4836.19
484.647	4836.19
484.751	4915.19
484.855	4954.19
484.96	4996.19
485.064	5071.19
485.168	5167.19
485.273	5033.19
485.377	5057.19
485.481	5357.19
485.585	5141.19
485.69	5113.19
485.794	5233.19
485.898	5265.19
486.002	5277.19
486.107	5293.19
486.211	5242.19
486.315	5325.19
486.419	5346.19
486.524	5432.19
486.628	5347.19
486.732	5219.19
486.836	5292.19
486.94	5449.19
487.044	5331.19
487.148	5295.19
487.253	5227.19
487.357	5410.19
487.461	5495.19
487.565	5398.19
487.669	5354.19
487.773	5231.19
487.877	5450.19
487.981	5537.19
488.085	5306.19
488.189	5254.19
488.293	5438.19
488.397	5773.19
488.501	5310.19
488.605	5400.19
488.709	5273.19
488.813	5210.19
488.917	5272.19
489.021	5388.19
489.125	5491.19
489.229	5333.19
489.333	5542.19
489.437	5357.19
489.541	5332.19
489.645	5320.19
489.749	5341.19
489.853	5494.19
489.956	5286.19
490.06	5302.19
490.164	5328.19
490.268	5279.19
490.372	5432.19
490.476	5299.19
490.579	5378.19
490.683	6073.19
490.787	5410.19
490.891	5298.19
490.995	5404.19
491.098	5289.19
491.202	5320.19
491.306	5373.19
491.41	5206.19
491.513	5210.19
491.617	5200.19
491.721	5424.19
491.824	5487.19
491.928	5265.19
492.032	5604.19
492.136	5277.19
492.239	5264.19
492.343	5453.19
492.446	5712.19
492.55	5483.19
492.654	5275.19
492.757	5242.19
492.861	5398.19
492.965	5340.19
493.068	5384.19
493.172	5207.19
493.275	5182.19
493.379	5310.19
493.482	5428.19
493.586	5506.19
493.689	5586.19
493.793	5304.19
493.896	5486.19
494	5485.19
494.103	5527.19
494.207	5740.19
494.31	5847.19
494.414	5475.19
494.517	5378.19
494.621	5289.19
494.724	5361.19
494.828	5204.19
494.931	5268.19
495.034	5249.19
495.138	5474.19
495.241	5126.19
495.345	6108.19
495.448	5377.19
495.551	5231.19
495.655	5274.19
495.758	5237.19
495.861	5120.19
495.965	5161.19
496.068	5242.19
496.171	5401.19
496.274	5232.19
496.378	5232.19
496.481	5359.19
496.584	5315.19
496.687	5502.19
496.791	5519.19
496.894	5497.19
496.997	5377.19
497.1	5483.19
497.204	5552.19
497.307	5464.19
497.41	5876.19
497.513	5919.19
497.616	5812.19
497.719	5878.19
497.823	5976.19
497.926	6078.19
498.029	6284.19
498.132	6275.19
498.235	6448.19
498.338	6675.19
498.441	6993.19
498.544	7054.19
498.647	7333.19
498.75	7639.19
498.853	7920.19
498.956	7966.19
499.059	8630.19
499.163	8702.19
499.266	9106.19
499.369	9513.19
499.471	9910.19
499.574	10459.19
499.677	10863.19
499.78	11729.19
499.883	12377.19
499.986	13063.19
500.089	13541.19
500.192	13863.19
500.295	13888.19
500.398	13793.19
500.501	13475.19
500.604	13026.19
500.707	12359.19
500.809	11640.19
500.912	11059.19
501.015	10565.19
501.118	9934.19
501.221	9336.19
501.324	8818.19
501.426	8468.19
501.529	7944.19
501.632	7629.19
501.735	7352.19
501.837	7086.19
501.94	6894.19
502.043	6804.19
502.146	6582.19
502.248	6364.19
502.351	6020.19
502.454	6200.19
502.557	5879.19
502.659	5741.19
502.762	5636.19
502.865	5379.19
502.967	5344.19
503.07	5271.19
503.173	5149.19
503.275	5148.19
503.378	5024.19
503.48	4930.19
503.583	4953.19
503.686	5088.19
503.788	5180.19
503.891	4873.19
503.993	5177.19
504.096	4991.19
504.198	5075.19
504.301	5054.19
504.403	5102.19
504.506	5018.19
504.608	4863.19
504.711	4801.19
504.813	4665.19
504.916	4449.19
505.018	4328.19
505.121	4246.19
505.223	4222.19
505.326	4016.19
505.428	4209.19
505.531	3966.19
505.633	3959.19
505.735	3926.19
505.838	3864.19
505.94	3813.19
506.042	3789.19
506.145	3741.19
506.247	3851.19
506.35	3686.19
506.452	3866.19
506.554	3742.19
506.656	3694.19
506.759	3662.19
506.861	3729.19
506.963	3645.19
507.066	3686.19
507.168	3790.19
507.27	3521.19
507.372	3528.19
507.475	3526.19
507.577	3493.19
507.679	3510.19
507.781	3510.19
507.883	3479.19
507.986	3383.19
508.088	3462.19
508.19	3425.19
508.292	3340.19
508.394	3410.19
508.496	3310.19
508.598	3271.19
508.701	3365.19
508.803	3428.19
508.905	3252.19
509.007	3270.19
509.109	3408.19
509.211	3311.19
509.313	3268.19
509.415	3328.19
509.517	3321.19
509.619	3213.19
509.721	3362.19
509.823	3178.19
509.925	3501.19
510.027	3274.19
510.129	3275.19
510.231	3223.19
510.333	3217.19
510.435	3242.19
510.537	3345.19
510.639	3358.19
510.741	3234.19
510.843	3276.19
510.945	3300.19
511.047	3376.19
511.148	3291.19
511.25	3201.19
511.352	3302.19
511.454	3184.19
511.556	3336.19
511.658	3242.19
511.76	3347.19
511.861	3463.19
511.963	3277.19
512.065	3306.19
512.167	3226.19
512.268	3492.19
512.37	3438.19
512.472	3225.19
512.574	3381.19
512.676	3317.19
512.777	3300.19
512.879	3280.19
512.981	3269.19
513.082	3360.19
513.184	3300.19
513.286	3861.19
513.387	3458.19
513.489	3486.19
513.591	3443.19
513.692	3508.19
513.794	3456.19
513.896	3296.19
513.997	3392.19
514.099	3337.19
514.2	3455.19
514.302	3551.19
514.404	3468.19
514.505	3428.19
514.607	3615.19
514.708	3566.19
514.81	3623.19
514.911	3593.19
515.013	3682.19
515.114	3690.19
515.216	3613.19
515.317	3683.19
515.419	3674.19
515.52	3801.19
515.622	3748.19
515.723	3776.19
515.825	3951.19
515.926	3922.19
516.027	3964.19
516.129	3962.19
516.23	4139.19
516.332	4158.19
516.433	4159.19
516.534	4372.19
516.636	4516.19
516.737	4455.19
516.838	5697.19
516.94	4787.19
517.041	4912.19
517.142	5100.19
517.244	5165.19
517.345	5256.19
517.446	5364.19
517.547	5300.19
517.649	5181.19
517.75	5265.19
517.851	5266.19
517.952	5377.19
518.054	5166.19
518.155	5112.19
518.256	4798.19
518.357	4894.19
518.458	4623.19
518.56	4605.19
518.661	4617.19
518.762	4438.19
518.863	4587.19
518.964	4501.19
519.065	4274.19
519.166	4188.19
519.268	4134.19
519.369	4430.19
519.47	4104.19
519.571	4093.19
519.672	4157.19
519.773	4035.19
519.874	4045.19
519.975	4078.19
520.076	3930.19
520.177	4033.19
520.278	3954.19
520.379	3961.19
520.48	3926.19
520.581	3832.19
520.682	3969.19
520.783	3876.19
520.884	3910.19
520.985	3883.19
521.086	3880.19
521.187	3976.19
521.288	3969.19
521.389	3856.19
521.489	3871.19
521.59	3772.19
521.691	3918.19
521.792	3808.19
521.893	3944.19
521.994	3988.19
522.095	3864.19
522.195	3972.19
522.296	4038.19
522.397	3917.19
522.498	3802.19
522.599	3782.19
522.699	3795.19
522.8	3709.19
522.901	3982.19
523.002	3793.19
523.102	4037.19
523.203	3813.19
523.304	4032.19
523.405	3865.19
523.505	3806.19
523.606	3950.19
523.707	3848.19
523.807	3839.19
523.908	3933.19
524.009	3866.19
524.109	3868.19
524.21	3917.19
524.31	4040.19
524.411	3972.19
524.512	4040.19
524.612	4037.19
524.713	4041.19
524.813	3921.19
524.914	4209.19
525.014	10048.19
525.115	4335.19
525.216	3969.19
525.316	3913.19
525.417	3911.19
525.517	3940.19
525.618	3926.19
525.718	3839.19
525.819	3878.19
525.919	4055.19
526.019	3880.19
526.12	3938.19
526.22	3888.19
526.321	3892.19
526.421	3967.19
526.522	3911.19
526.622	3743.19
526.722	3810.19
526.823	3959.19
526.923	3983.19
527.023	4037.19
527.124	3842.19
527.224	4006.19
527.324	3758.19
527.425	3921.19
527.525	3850.19
527.625	3917.19
527.726	3913.19
527.826	4062.19
527.926	3851.19
528.026	3997.19
528.127	3856.19
528.227	3891.19
528.327	3939.19
528.427	3919.19
528.528	4012.19
528.628	3946.19
528.728	3895.19
528.828	4012.19
528.928	4019.19
529.029	3870.19
529.129	4022.19
529.229	3914.19
529.329	3903.19
529.429	4020.19
529.529	4061.19
529.629	4009.19
529.729	3852.19
529.829	4095.19
529.93	3840.19
530.03	4014.19
530.13	3967.19
530.23	3930.19
530.33	3923.19
530.43	3849.19
530.53	3915.19
530.63	3949.19
530.73	3805.19
530.83	3748.19
530.93	3792.19
531.03	3802.19
531.13	3973.19
531.23	3809.19
531.33	3953.19
531.429	4004.19
531.529	4111.19
531.629	3909.19
531.729	3770.19
531.829	3811.19
531.929	3817.19
532.029	3870.19
532.129	3869.19
532.229	3851.19
532.328	3825.19
532.428	3844.19
532.528	3697.19
532.628	3806.19
532.728	3833.19
532.827	3678.19
532.927	3768.19
533.027	3796.19
533.127	3961.19
533.227	3842.19
533.326	3812.19
533.426	3670.19
533.526	3812.19
533.625	3925.19
533.725	4101.19
533.825	3784.19
533.924	3644.19
534.024	3605.19
534.124	3614.19
534.223	3602.19
534.323	4090.19
534.423	3645.19
534.522	3701.19
534.622	3508.19
534.722	3553.19
534.821	3494.19
534.921	3553.19
535.02	3560.19
535.12	3553.19
535.219	3715.19
535.319	3668.19
535.419	3569.19
535.518	3408.19
535.618	3536.19
535.717	3577.19
535.817	3350.19
535.916	3315.19
536.016	3497.19
536.115	3288.19
536.215	3312.19
536.314	3320.19
536.413	3246.19
536.513	3294.19
536.612	3231.19
536.712	3173.19
536.811	3203.19
536.91	3252.19
537.01	3164.19
537.109	3332.19
537.209	3254.19
537.308	3239.19
537.407	3174.19
537.507	3224.19
537.606	3150.19
537.705	3179.19
537.805	3220.19
537.904	3139.19
538.003	3208.19
538.102	3274.19
538.202	3169.19
538.301	3148.19
538.4	3129.19
538.499	3104.19
538.599	3147.19
538.698	3315.19
538.797	2988.19
538.896	3205.19
538.995	3067.19
539.095	3046.19
539.194	3302.19
539.293	3020.19
539.392	3062.19
539.491	3092.19
539.59	3048.19
539.689	3095.19
539.789	3112.19
539.888	2951.19
539.987	2878.19
540.086	2930.19
540.185	3006.19
540.284	2986.19
540.383	2930.19
540.482	2911.19
540.581	2973.19
540.68	2951.19
540.779	2973.19
540.878	2990.19
540.977	2985.19
541.076	2971.19
541.175	2989.19
541.274	3180.19
541.373	2975.19
541.472	2992.19
541.571	2773.19
541.67	4258.19
541.769	3092.19
541.868	2862.19
541.966	2880.19
542.065	2923.19
542.164	2861.19
542.263	2813.19
542.362	2845.19
542.461	2995.19
542.56	2893.19
542.658	2883.19
542.757	2841.19
542.856	2733.19
542.955	2792.19
543.054	2760.19
543.152	2973.19
543.251	2845.19
543.35	2978.19
543.449	2862.19
543.547	2800.19
543.646	2752.19
543.745	2862.19
543.843	2856.19
543.942	2857.19
544.041	2799.19
544.14	2858.19
544.238	2731.19
544.337	3160.19
544.436	2965.19
544.534	3048.19
544.633	2956.19
544.731	2874.19
544.83	2879.19
544.929	2887.19
545.027	2932.19
545.126	2844.19
545.224	3001.19
545.323	2880.19
545.421	2840.19
545.52	2918.19
545.619	2985.19
545.717	2818.19
545.816	2968.19
545.914	2929.19
546.013	3118.19
546.111	3087.19
546.209	2840.19
546.308	2884.19
546.406	2839.19
546.505	3006.19
546.603	2998.19
546.702	2751.19
546.8	2895.19
546.899	2857.19
546.997	2835.19
547.095	2881.19
547.194	2886.19
547.292	2904.19
547.39	3024.19
547.489	2853.19
547.587	3200.19
547.685	2871.19
547.784	3180.19
547.882	3034.19
547.98	2863.19
548.079	2873.19
548.177	2837.19
548.275	2807.19
548.373	3017.19
548.472	2838.19
548.57	2768.19
548.668	2917.19
548.766	2838.19
548.864	3052.19
548.963	2897.19
549.061	3097.19
549.159	2865.19
549.257	3063.19
549.355	2948.19
549.454	2890.19
549.552	3019.19
549.65	2965.19
549.748	2880.19
549.846	2921.19
549.944	2894.19
550.042	2855.19
550.14	2922.19
550.238	2877.19
550.336	2807.19
550.434	2856.19
550.532	2832.19
550.631	2888.19
550.729	2880.19
550.827	2939.19
550.925	2785.19
551.023	2854.19
551.121	2800.19
551.218	2794.19
551.316	2782.19
551.414	2832.19
551.512	2753.19
551.61	2870.19
551.708	3085.19
551.806	2919.19
551.904	2826.19
552.002	2941.19
552.1	2900.19
552.198	2938.19
552.296	3184.19
552.393	3211.19
552.491	3242.19
552.589	3251.19
552.687	3380.19
552.785	3203.19
552.882	3377.19
552.98	3518.19
553.078	3342.19
553.176	3404.19
553.274	3226.19
553.371	3337.19
553.469	3244.19
553.567	3187.19
553.665	3141.19
553.762	3562.19
553.86	3243.19
553.958	3231.19
554.055	3056.19
554.153	3187.19
554.251	3038.19
554.348	3023.19
554.446	2913.19
554.544	2987.19
554.641	3204.19
554.739	2813.19
554.837	2931.19
554.934	2879.19
555.032	2860.19
555.129	2774.19
555.227	3106.19
555.324	7284.19
555.422	3142.19
555.519	2865.19
555.617	2742.19
555.715	2602.19
555.812	3054.19
555.91	2690.19
556.007	2736.19
556.105	2657.19
556.202	2726.19
556.299	2609.19
556.397	2673.19
556.494	2681.19
556.592	2678.19
556.689	2694.19
556.787	2662.19
556.884	2585.19
556.981	2619.19
557.079	2598.19
557.176	2678.19
557.273	2660.19
557.371	2663.19
557.468	2613.19
557.566	2679.19
557.663	2572.19
557.76	2715.19
557.857	2607.19
557.955	2677.19
558.052	2784.19
558.149	2770.19
558.247	2792.19
558.344	2655.19
558.441	2538.19
558.538	2580.19
558.636	2726.19
558.733	2695.19
558.83	2613.19
558.927	2657.19
559.024	2701.19
559.122	2580.19
559.219	2655.19
559.316	2785.19
559.413	2774.19
559.51	2621.19
559.607	2645.19
559.704	2723.19
559.801	2721.19
559.899	2608.19
559.996	2977.19
560.093	2685.19
560.19	2615.19
560.287	2711.19
560.384	2895.19
560.481	2673.19
560.578	2742.19
560.675	2621.19
560.772	2773.19
560.869	2715.19
560.966	2862.19
561.063	2706.19
561.16	2771.19
561.257	2808.19
561.354	2700.19
561.451	2669.19
561.548	2891.19
561.645	2895.19
561.742	2671.19
561.838	2714.19
561.935	2777.19
562.032	2809.19
562.129	2892.19
562.226	2796.19
562.323	2694.19
562.42	2901.19
562.516	2840.19
562.613	2789.19
562.71	2826.19
562.807	3674.19
562.904	2810.19
563	2833.19
563.097	2924.19
563.194	2874.19
563.291	2823.19
563.387	2946.19
563.484	2921.19
563.581	2848.19
563.678	2927.19
563.774	3416.19
563.871	2999.19
563.968	2947.19
564.064	3101.19
564.161	3038.19
564.258	3021.19
564.354	3159.19
564.451	3171.19
564.548	3205.19
564.644	3198.19
564.741	3240.19
564.837	3122.19
564.934	3265.19
565.031	3387.19
565.127	3347.19
565.224	3511.19
565.32	3721.19
565.417	3552.19
565.513	3774.19
565.61	3763.19
565.706	3882.19
565.803	3903.19
565.899	3960.19
565.996	4198.19
566.092	4238.19
566.189	4482.19
566.285	4716.19
566.382	4875.19
566.478	5074.19
566.574	5290.19
566.671	5092.19
566.767	5082.19
566.864	5023.19
566.96	5226.19
567.056	5196.19
567.153	5613.19
567.249	5555.19
567.345	5709.19
567.442	5889.19
567.538	6074.19
567.634	6159.19
567.731	6215.19
567.827	6371.19
567.923	6086.19
568.019	5758.19
568.116	5532.19
568.212	5233.19
568.308	5041.19
568.404	4889.19
568.501	4609.19
568.597	4609.19
568.693	4429.19
568.789	5137.19
568.885	4079.19
568.982	3994.19
569.078	3798.19
569.174	3874.19
569.27	3548.19
569.366	3670.19
569.462	3601.19
569.558	3419.19
569.655	3383.19
569.751	3384.19
569.847	3318.19
569.943	3333.19
570.039	3219.19
570.135	3787.19
570.231	3226.19
570.327	3408.19
570.423	3343.19
570.519	3288.19
570.615	3200.19
570.711	3314.19
570.807	3329.19
570.903	3271.19
570.999	3272.19
571.095	3236.19
571.191	3065.19
571.287	3172.19
571.383	3102.19
571.479	3001.19
571.574	3036.19
571.67	2903.19
571.766	3101.19
571.862	2855.19
571.958	2823.19
572.054	2922.19
572.15	2701.19
572.246	2693.19
572.341	2899.19
572.437	2785.19
572.533	2850.19
572.629	2726.19
572.725	2634.19
572.82	2748.19
572.916	2769.19
573.012	2664.19
573.108	2815.19
573.203	2592.19
573.299	2529.19
573.395	2591.19
573.49	2461.19
573.586	2562.19
573.682	2539.19
573.778	2741.19
573.873	2554.19
573.969	2480.19
574.065	2559.19
574.16	2533.19
574.256	2474.19
574.351	2609.19
574.447	2461.19
574.543	2633.19
574.638	2592.19
574.734	2513.19
574.829	2685.19
574.925	2429.19
575.02	2495.19
575.116	2354.19
575.212	2477.19
575.307	2549.19
575.403	2319.19
575.498	2461.19
575.594	2382.19
575.689	2433.19
575.784	2414.19
575.88	2410.19
575.975	2380.19
576.071	2298.19
576.166	2252.19
576.262	2332.19
576.357	2226.19
576.452	2466.19
576.548	2374.19
576.643	2266.19
576.739	2322.19
576.834	2342.19
576.929	2341.19
577.025	2496.19
577.12	2145.19
577.215	2197.19
577.311	2235.19
577.406	2292.19
577.501	2430.19
577.597	2083.19
577.692	2356.19
577.787	2382.19
577.882	2095.19
577.978	2135.19
578.073	2147.19
578.168	2102.19
578.263	2106.19
578.358	2098.19
578.454	2089.19
578.549	2045.19
578.644	2075.19
578.739	2194.19
578.834	2007.19
578.929	2041.19
579.025	2022.19
579.12	2078.19
579.215	2273.19
579.31	2208.19
579.405	2008.19
579.5	2081.19
579.595	2043.19
579.69	1943.19
579.785	1947.19
579.88	1949.19
579.975	2061.19
580.07	1889.19
580.165	1968.19
580.26	2098.19
580.355	1934.19
580.45	1829.19
580.545	1879.19
580.64	1935.19
580.735	2041.19
580.83	1963.19
580.925	1892.19
581.02	1870.19
581.115	1837.19
581.21	1843.19
581.305	1868.19
581.4	1852.19
581.495	1882.19
581.589	1828.19
581.684	1767.19
581.779	1881.19
581.874	1851.19
581.969	1890.19
582.064	1786.19
582.158	1919.19
582.253	1783.19
582.348	1789.19
582.443	1833.19
582.537	1803.19
582.632	2040.19
582.727	1864.19
582.822	1770.19
582.916	1734.19
583.011	1786.19
583.106	1873.19
583.201	1725.19
583.295	1738.19
583.39	1768.19
583.485	1664.19
583.579	4278.19
583.674	2043.19
583.769	1983.19
583.863	1766.19
583.958	1789.19
584.052	1647.19
584.147	1709.19
584.242	1644.19
584.336	1738.19
584.431	1880.19
584.525	1669.19
584.62	1905.19
584.714	1833.19
584.809	1749.19
584.903	1739.19
584.998	1781.19
585.092	1653.19
585.187	1764.19
585.281	1622.19
585.376	1678.19
585.47	1763.19
585.565	1715.19
585.659	1583.19
585.754	1635.19
585.848	1721.19
585.942	1644.19
586.037	1645.19
586.131	4240.19
586.226	1807.19
586.32	1667.19
586.414	1631.19
586.509	1764.19
586.603	1697.19
586.697	1708.19
586.792	1658.19
586.886	1562.19
586.98	1721.19
587.075	1636.19
587.169	1591.19
587.263	1816.19
587.357	1731.19
587.452	1556.19
587.546	1767.19
587.64	1629.19
587.734	1703.19
587.829	1695.19
587.923	1652.19
588.017	1700.19
588.111	1706.19
588.205	1867.19
588.3	1785.19
588.394	1711.19
588.488	1906.19
588.582	2193.19
588.676	2622.19
588.77	5186.19
588.864	12442.19
588.958	12515.19
589.052	8433.19
589.147	4865.19
589.241	3362.19
589.335	3469.19
589.429	7757.19
589.523	10024.19
589.617	7631.19
589.711	4469.19
589.805	2875.19
589.899	2276.19
589.993	1904.19
590.087	1736.19
590.181	1715.19
590.275	1777.19
590.369	1747.19
590.462	1589.19
590.556	1565.19
590.65	1615.19
590.744	1633.19
590.838	1569.19
590.932	1601.19
591.026	1746.19
591.12	1824.19
591.214	1610.19
591.307	1697.19
591.401	1570.19
591.495	1709.19
591.589	1631.19
591.683	1663.19
591.777	1741.19
591.87	2032.19
591.964	1782.19
592.058	1678.19
592.152	1750.19
592.245	1728.19
592.339	1872.19
592.433	1943.19
592.527	1868.19
592.62	1791.19
592.714	1915.19
592.808	1970.19
592.901	1968.19
592.995	1901.19
593.089	2205.19
593.182	1960.19
593.276	1917.19
593.37	1872.19
593.463	1883.19
593.557	1869.19
593.65	1919.19
593.744	1962.19
593.837	2071.19
593.931	1893.19
594.025	5272.19
594.118	2227.19
594.212	1887.19
594.305	1829.19
594.399	1921.19
594.492	2191.19
594.586	1832.19
594.679	1714.19
594.773	1687.19
594.866	1703.19
594.96	1664.19
595.053	1607.19
595.146	1601.19
595.24	1601.19
595.333	1593.19
595.427	1453.19
595.52	1486.19
595.614	1679.19
595.707	1496.19
595.8	1452.19
595.894	1522.19
595.987	1413.19
596.08	1329.19
596.174	1772.19
596.267	1558.19
596.36	1473.19
596.454	1535.19
596.547	1473.19
596.64	1316.19
596.733	1272.19
596.827	1505.19
596.92	1309.19
597.013	1238.19
597.106	1245.19
597.2	1255.19
597.293	1229.19
597.386	1448.19
597.479	1318.19
597.572	1337.19
597.666	1259.19
597.759	1306.19
597.852	1343.19
597.945	1184.19
598.038	1268.19
598.131	1242.19
598.224	1265.19
598.317	1371.19
598.411	1285.19
598.504	1174.19
598.597	1330.19
598.69	1279.19
598.783	1174.19
598.876	1177.19
598.969	1247.19
599.062	1139.19
599.155	1283.19
599.248	1202.19
599.341	1222.19
599.434	1184.19
599.527	1313.19
599.62	1185.19
599.713	1157.19
599.806	1299.19
599.899	1365.19
599.991	1134.19
600.084	1452.19
600.177	1158.19
600.27	1125.19
600.363	1334.19
600.456	1203.19
600.549	1184.19
600.642	1118.19
600.734	1199.19
600.827	1146.19
600.92	1233.19
601.013	1170.19
601.106	1209.19
601.199	1100.19
601.291	1150.19
601.384	1171.19
601.477	1327.19
601.57	1288.19
601.662	1195.19
601.755	1136.19
601.848	1192.19
601.94	1167.19
602.033	1264.19
602.126	1161.19
602.219	1128.19
602.311	1271.19
602.404	1097.19
602.497	1109.19
602.589	1125.19
602.682	1096.19
602.774	1191.19
602.867	1184.19
602.96	1101.19
603.052	1133.19
603.145	1142.19
603.237	1053.19
603.33	1120.19
603.422	1291.19
603.515	1118.19
603.608	1101.19
603.7	1089.19
603.793	1183.19
603.885	1159.19
603.978	1113.19
604.07	1134.19
604.163	1056.19
604.255	1115.19
604.347	1091.19
604.44	1042.19
604.532	1147.19
604.625	1125.19
604.717	1121.19
604.81	1142.19
604.902	1071.19
604.994	1046.19
605.087	1088.19
605.179	1057.19
605.271	1141.19
605.364	1117.19
605.456	1188.19
605.548	1108.19
605.641	1113.19
605.733	1031.19
605.825	1082.19
605.918	1079.19
606.01	1226.19
606.102	1479.19
606.194	1102.19
606.287	1201.19
606.379	1045.19
606.471	1170.19
606.563	1063.19
606.655	1111.19
606.748	1193.19
606.84	1022.19
606.932	1111.19
607.024	1083.19
607.116	1037.19
607.208	1014.19
607.301	1078.19
607.393	1067.19
607.485	1068.19
607.577	1082.19
607.669	1270.19
607.761	1128.19
607.853	1339.19
607.945	1069.19
608.037	1008.19
608.129	1050.19
608.221	1080.19
608.313	1080.19
608.405	1151.19
608.497	1095.19
608.589	1078.19
608.681	1031.19
608.773	1114.19
608.865	1092.19
608.957	1091.19
609.049	1003.19
609.141	1194.19
609.233	1034.19
609.325	933.19
609.417	1033.19
609.509	1144.19
609.601	1217.19
609.693	1150.19
609.784	1081.19
609.876	1035.19
609.968	1051.19
610.06	3715.19
610.152	1305.19
610.244	1341.19
610.335	1095.19
610.427	1003.19
610.519	1018.19
610.611	1057.19
610.702	1027.19
610.794	1033.19
610.886	1103.19
610.978	1070.19
611.069	1555.19
611.161	1012.19
611.253	1135.19
611.344	961.19
611.436	905.19
611.528	1093.19
611.62	886.19
611.711	955.19
611.803	892.19
611.894	915.19
611.986	840.19
612.078	897.19
612.169	958.19
612.261	840.19
612.352	834.19
612.444	863.19
612.536	943.19
612.627	886.19
612.719	834.19
612.81	794.19
612.902	755.19
612.993	766.19
613.085	772.19
613.176	694.19
613.268	786.19
613.359	750.19
613.451	732.19
613.542	761.19
613.634	707.19
613.725	703.19
613.816	801.19
613.908	627.19
613.999	627.19
614.091	560.19
614.182	520.19
614.273	633.19
614.365	552.19
614.456	475.19
614.547	540.19
614.639	467.19
614.73	489.19
614.821	609.19
614.913	440.19
615.004	401.19
615.095	448.19
615.187	395.19
