Data from 35g_HRC06701__21__448.txt Node

Date: Thu Apr 18 02:31:53 CDT 2024
User: Estudiantes 2
Spectrometer: HR+C0670
Trigger mode: 4
Integration Time (sec): 1.000000E0
Scans to average: 1
Electric dark correction enabled: true
Nonlinearity correction enabled: false
Boxcar width: 0
XAxis mode: Wavelengths
Number of Pixels in Spectrum: 2048
>>>>>Begin Spectral Data<<<<<
407.81	-154.81
407.921	-154.81
408.032	-154.81
408.143	-94.81
408.254	-158.81
408.365	40.19
408.476	324.19
408.587	-48.81
408.699	-48.81
408.81	19.19
408.921	-71.81
409.032	-37.81
409.143	50.19
409.254	36.19
409.365	59.19
409.476	-19.81
409.587	31.19
409.698	75.19
409.809	90.19
409.92	2.19
410.031	-46.81
410.142	64.19
410.253	56.19
410.364	78.19
410.475	828.19
410.585	3922.19
410.696	4083.19
410.807	4121.19
410.918	4043.19
411.029	4245.19
411.14	4120.19
411.251	4129.19
411.362	4225.19
411.472	4319.19
411.583	4259.19
411.694	4606.19
411.805	4595.19
411.916	4553.19
412.026	4550.19
412.137	4391.19
412.248	4264.19
412.359	4263.19
412.47	4069.19
412.58	4064.19
412.691	4177.19
412.802	4079.19
412.912	4048.19
413.023	4164.19
413.134	4073.19
413.245	4145.19
413.355	4135.19
413.466	4043.19
413.577	4068.19
413.687	4098.19
413.798	3889.19
413.909	4232.19
414.019	4203.19
414.13	4302.19
414.24	4232.19
414.351	4333.19
414.462	4517.19
414.572	4270.19
414.683	4186.19
414.793	4218.19
414.904	4570.19
415.014	4209.19
415.125	4166.19
415.235	4209.19
415.346	4472.19
415.456	4407.19
415.567	4230.19
415.677	4190.19
415.788	4166.19
415.898	4123.19
416.009	4102.19
416.119	4147.19
416.23	4034.19
416.34	4083.19
416.45	4178.19
416.561	4715.19
416.671	4292.19
416.782	4267.19
416.892	4316.19
417.002	4311.19
417.113	4436.19
417.223	4276.19
417.333	4309.19
417.444	4408.19
417.554	4449.19
417.664	4513.19
417.775	4436.19
417.885	4612.19
417.995	4590.19
418.106	4903.19
418.216	4782.19
418.326	4973.19
418.436	5007.19
418.547	4964.19
418.657	4978.19
418.767	5171.19
418.877	5132.19
418.987	5158.19
419.098	5063.19
419.208	5079.19
419.318	5122.19
419.428	5060.19
419.538	4940.19
419.648	5054.19
419.759	4973.19
419.869	4933.19
419.979	4855.19
420.089	4958.19
420.199	4903.19
420.309	4929.19
420.419	5000.19
420.529	4957.19
420.639	5120.19
420.749	4954.19
420.859	5047.19
420.969	5038.19
421.079	5245.19
421.189	4982.19
421.299	5056.19
421.409	5051.19
421.519	5216.19
421.629	5265.19
421.739	5195.19
421.849	5263.19
421.959	5252.19
422.069	5393.19
422.179	5436.19
422.289	5361.19
422.399	5681.19
422.509	5793.19
422.619	8997.19
422.729	6048.19
422.838	5764.19
422.948	5871.19
423.058	5943.19
423.168	6087.19
423.278	6194.19
423.388	6199.19
423.498	6367.19
423.607	6361.19
423.717	6700.19
423.827	6653.19
423.937	6485.19
424.046	6464.19
424.156	6570.19
424.266	6435.19
424.376	6626.19
424.485	6576.19
424.595	6524.19
424.705	6501.19
424.815	6368.19
424.924	6949.19
425.034	6541.19
425.144	6466.19
425.253	6457.19
425.363	6638.19
425.473	6600.19
425.582	6339.19
425.692	6590.19
425.801	6435.19
425.911	6614.19
426.021	6629.19
426.13	6898.19
426.24	6855.19
426.349	6756.19
426.459	6773.19
426.568	6661.19
426.678	6918.19
426.787	6800.19
426.897	6692.19
427.006	6895.19
427.116	7024.19
427.225	6931.19
427.335	7120.19
427.444	6924.19
427.554	7086.19
427.663	7119.19
427.773	7141.19
427.882	7320.19
427.992	7103.19
428.101	7275.19
428.21	7273.19
428.32	7293.19
428.429	7173.19
428.539	7681.19
428.648	7440.19
428.757	7377.19
428.867	7531.19
428.976	7765.19
429.085	7576.19
429.195	7545.19
429.304	7649.19
429.413	7651.19
429.523	7642.19
429.632	7773.19
429.741	7638.19
429.85	7647.19
429.96	7922.19
430.069	7704.19
430.178	7785.19
430.287	8248.19
430.397	7978.19
430.506	7951.19
430.615	8107.19
430.724	8089.19
430.833	8183.19
430.943	8252.19
431.052	8352.19
431.161	8357.19
431.27	8652.19
431.379	8806.19
431.488	9217.19
431.597	9209.19
431.706	9367.19
431.816	9314.19
431.925	9099.19
432.034	8950.19
432.143	9176.19
432.252	8912.19
432.361	8976.19
432.47	8994.19
432.579	9053.19
432.688	9018.19
432.797	9188.19
432.906	8943.19
433.015	9114.19
433.124	9486.19
433.233	9337.19
433.342	9090.19
433.451	9218.19
433.56	9318.19
433.669	9390.19
433.778	9308.19
433.886	9688.19
433.995	9500.19
434.104	9940.19
434.213	10025.19
434.322	10302.19
434.431	10792.19
434.54	11209.19
434.649	11493.19
434.757	11657.19
434.866	11462.19
434.975	11102.19
435.084	10597.19
435.193	10168.19
435.301	9970.19
435.41	9863.19
435.519	9870.19
435.628	8952.19
435.737	8958.19
435.845	8861.19
435.954	8703.19
436.063	8743.19
436.171	8707.19
436.28	8720.19
436.389	9066.19
436.498	8628.19
436.606	8871.19
436.715	9046.19
436.823	8656.19
436.932	8211.19
437.041	8260.19
437.149	8322.19
437.258	8044.19
437.367	8006.19
437.475	8020.19
437.584	8262.19
437.692	7923.19
437.801	9720.19
437.91	7933.19
438.018	7778.19
438.127	7798.19
438.235	7764.19
438.344	7817.19
438.452	7836.19
438.561	7701.19
438.669	7752.19
438.778	7661.19
438.886	7774.19
438.995	7629.19
439.103	7837.19
439.212	7860.19
439.32	7851.19
439.428	7777.19
439.537	7901.19
439.645	8019.19
439.754	8099.19
439.862	7859.19
439.97	8022.19
440.079	8073.19
440.187	7938.19
440.295	8243.19
440.404	8167.19
440.512	8243.19
440.62	8274.19
440.729	8426.19
440.837	8610.19
440.945	9556.19
441.054	8972.19
441.162	9158.19
441.27	9727.19
441.378	9977.19
441.487	10180.19
441.595	10484.19
441.703	9904.19
441.811	9413.19
441.92	9382.19
442.028	8962.19
442.136	8944.19
442.244	8848.19
442.352	8942.19
442.461	8615.19
442.569	8770.19
442.677	8853.19
442.785	8833.19
442.893	8818.19
443.001	8711.19
443.109	8790.19
443.217	8811.19
443.325	8801.19
443.434	9540.19
443.542	9420.19
443.65	9117.19
443.758	9426.19
443.866	9357.19
443.974	10056.19
444.082	9888.19
444.19	10239.19
444.298	10596.19
444.406	11022.19
444.514	11666.19
444.622	11568.19
444.73	11610.19
444.838	10990.19
444.946	10696.19
445.054	9879.19
445.161	9820.19
445.269	9412.19
445.377	9390.19
445.485	9152.19
445.593	8896.19
445.701	9023.19
445.809	8989.19
445.917	8873.19
446.025	8709.19
446.132	8948.19
446.24	8828.19
446.348	8936.19
446.456	8751.19
446.564	8759.19
446.671	8732.19
446.779	8693.19
446.887	8556.19
446.995	8481.19
447.102	8329.19
447.21	8373.19
447.318	8478.19
447.426	8233.19
447.533	8636.19
447.641	9833.19
447.749	8356.19
447.856	8265.19
447.964	8337.19
448.072	8324.19
448.179	8221.19
448.287	8258.19
448.395	8288.19
448.502	8140.19
448.61	8281.19
448.718	8326.19
448.825	8290.19
448.933	8311.19
449.04	8305.19
449.148	8354.19
449.256	8341.19
449.363	8474.19
449.471	8567.19
449.578	8648.19
449.686	8591.19
449.793	8944.19
449.901	8693.19
450.008	8949.19
450.116	8969.19
450.223	8924.19
450.331	9169.19
450.438	9298.19
450.546	9372.19
450.653	9560.19
450.76	9609.19
450.868	9725.19
450.975	10036.19
451.083	9772.19
451.19	9927.19
451.297	9719.19
451.405	9860.19
451.512	10031.19
451.619	10048.19
451.727	9971.19
451.834	9864.19
451.941	9880.19
452.049	9867.19
452.156	10062.19
452.263	10109.19
452.371	10049.19
452.478	10158.19
452.585	10329.19
452.692	10065.19
452.8	10296.19
452.907	10516.19
453.014	10289.19
453.121	10460.19
453.229	10536.19
453.336	10512.19
453.443	10501.19
453.55	10444.19
453.657	10376.19
453.765	10744.19
453.872	10501.19
453.979	10701.19
454.086	10672.19
454.193	10616.19
454.3	10517.19
454.407	10718.19
454.514	10914.19
454.621	10695.19
454.729	10677.19
454.836	10775.19
454.943	11027.19
455.05	10841.19
455.157	11028.19
455.264	10787.19
455.371	11042.19
455.478	11095.19
455.585	11433.19
455.692	11261.19
455.799	11549.19
455.906	11213.19
456.013	11125.19
456.12	11230.19
456.227	11267.19
456.334	11448.19
456.44	11586.19
456.547	11585.19
456.654	11425.19
456.761	11861.19
456.868	11831.19
456.975	11845.19
457.082	11800.19
457.189	11745.19
457.296	11862.19
457.402	11938.19
457.509	12095.19
457.616	12297.19
457.723	12678.19
457.83	12426.19
457.936	12414.19
458.043	13079.19
458.15	12989.19
458.257	13174.19
458.363	13453.19
458.47	13824.19
458.577	14026.19
458.684	14298.19
458.79	14586.19
458.897	14586.19
459.004	14586.19
459.11	14586.19
459.217	14586.19
459.324	14586.19
459.43	14586.19
459.537	14586.19
459.644	14586.19
459.75	14586.19
459.857	14586.19
459.964	14586.19
460.07	14586.19
460.177	14586.19
460.283	14586.19
460.39	14586.19
460.496	14586.19
460.603	14586.19
460.71	14586.19
460.816	14586.19
460.923	14586.19
461.029	14586.19
461.136	14586.19
461.242	14586.19
461.349	14586.19
461.455	14586.19
461.562	14586.19
461.668	14586.19
461.774	14586.19
461.881	14586.19
461.987	14586.19
462.094	14586.19
462.2	14586.19
462.307	14586.19
462.413	14586.19
462.519	14586.19
462.626	14586.19
462.732	14586.19
462.838	14586.19
462.945	14586.19
463.051	14586.19
463.157	14586.19
463.264	14586.19
463.37	14586.19
463.476	14586.19
463.583	14586.19
463.689	14586.19
463.795	14586.19
463.901	14586.19
464.008	14586.19
464.114	14586.19
464.22	14586.19
464.326	14586.19
464.433	14586.19
464.539	14586.19
464.645	14586.19
464.751	14586.19
464.857	14586.19
464.963	14586.19
465.07	14586.19
465.176	14586.19
465.282	14586.19
465.388	14586.19
465.494	14586.19
465.6	14586.19
465.706	14308.19
465.812	14168.19
465.918	14357.19
466.024	14268.19
466.131	13908.19
466.237	13544.19
466.343	13309.19
466.449	13009.19
466.555	12748.19
466.661	12373.19
466.767	12604.19
466.873	12375.19
466.979	12556.19
467.085	12483.19
467.191	12531.19
467.296	12532.19
467.402	12495.19
467.508	12383.19
467.614	12446.19
467.72	11921.19
467.826	11687.19
467.932	11784.19
468.038	11415.19
468.144	11418.19
468.25	11241.19
468.355	11233.19
468.461	11125.19
468.567	11082.19
468.673	11196.19
468.779	11163.19
468.885	11176.19
468.99	11120.19
469.096	11228.19
469.202	11499.19
469.308	11500.19
469.413	11759.19
469.519	12015.19
469.625	11992.19
469.731	12306.19
469.836	12327.19
469.942	12709.19
470.048	12472.19
470.153	12624.19
470.259	12436.19
470.365	12624.19
470.47	12589.19
470.576	12331.19
470.682	12225.19
470.787	11966.19
470.893	11561.19
470.999	11412.19
471.104	11222.19
471.21	10868.19
471.315	10664.19
471.421	10534.19
471.527	10720.19
471.632	10570.19
471.738	10253.19
471.843	10076.19
471.949	10100.19
472.054	9921.19
472.16	9767.19
472.265	9776.19
472.371	9631.19
472.476	9687.19
472.582	9637.19
472.687	9434.19
472.793	9446.19
472.898	9385.19
473.003	9348.19
473.109	9269.19
473.214	9078.19
473.32	9302.19
473.425	9280.19
473.53	9299.19
473.636	9201.19
473.741	9020.19
473.847	9025.19
473.952	9190.19
474.057	9185.19
474.163	9246.19
474.268	9093.19
474.373	9238.19
474.478	9166.19
474.584	9157.19
474.689	9252.19
474.794	9251.19
474.9	9602.19
475.005	9226.19
475.11	9303.19
475.215	9279.19
475.321	9373.19
475.426	9522.19
475.531	9438.19
475.636	9248.19
475.741	9261.19
475.846	9528.19
475.952	9677.19
476.057	9526.19
476.162	9605.19
476.267	9665.19
476.372	9984.19
476.477	9657.19
476.582	9796.19
476.687	9746.19
476.793	9874.19
476.898	9856.19
477.003	10076.19
477.108	10092.19
477.213	10116.19
477.318	10258.19
477.423	10675.19
477.528	10761.19
477.633	10902.19
477.738	11134.19
477.843	10968.19
477.948	11180.19
478.053	11086.19
478.158	11307.19
478.263	11349.19
478.368	11533.19
478.473	11793.19
478.578	11880.19
478.682	12036.19
478.787	12351.19
478.892	12047.19
478.997	12119.19
479.102	12078.19
479.207	11920.19
479.312	12101.19
479.417	12132.19
479.521	12200.19
479.626	12338.19
479.731	12497.19
479.836	12763.19
479.941	12973.19
480.045	13292.19
480.15	13726.19
480.255	13772.19
480.36	13736.19
480.465	13657.19
480.569	13491.19
480.674	13100.19
480.779	12768.19
480.883	12641.19
480.988	12810.19
481.093	12711.19
481.197	12532.19
481.302	12519.19
481.407	12441.19
481.511	13984.19
481.616	12595.19
481.721	12512.19
481.825	12737.19
481.93	12437.19
482.035	12510.19
482.139	12592.19
482.244	12762.19
482.348	12739.19
482.453	12813.19
482.557	12995.19
482.662	12756.19
482.767	13007.19
482.871	13175.19
482.976	13192.19
483.08	13470.19
483.185	13768.19
483.289	13589.19
483.394	13764.19
483.498	13914.19
483.603	13932.19
483.707	14160.19
483.811	14299.19
483.916	14436.19
484.02	14435.19
484.125	14586.19
484.229	14586.19
484.333	14586.19
484.438	14586.19
484.542	14586.19
484.647	14586.19
484.751	14586.19
484.855	14586.19
484.96	14586.19
485.064	14586.19
485.168	14586.19
485.273	14586.19
485.377	14586.19
485.481	14586.19
485.585	14586.19
485.69	14586.19
485.794	14586.19
485.898	14586.19
486.002	14586.19
486.107	14586.19
486.211	14586.19
486.315	14586.19
486.419	14586.19
486.524	14586.19
486.628	14586.19
486.732	14586.19
486.836	14586.19
486.94	14586.19
487.044	14586.19
487.148	14586.19
487.253	14586.19
487.357	14586.19
487.461	14586.19
487.565	14586.19
487.669	14586.19
487.773	14586.19
487.877	14586.19
487.981	14586.19
488.085	14586.19
488.189	14586.19
488.293	14586.19
488.397	14586.19
488.501	14586.19
488.605	14586.19
488.709	14586.19
488.813	14586.19
488.917	14586.19
489.021	14586.19
489.125	14586.19
489.229	14586.19
489.333	14586.19
489.437	14586.19
489.541	14586.19
489.645	14586.19
489.749	14586.19
489.853	14586.19
489.956	14586.19
490.06	14586.19
490.164	14586.19
490.268	14586.19
490.372	14586.19
490.476	14586.19
490.579	14586.19
490.683	14586.19
490.787	14586.19
490.891	14586.19
490.995	14586.19
491.098	14586.19
491.202	14586.19
491.306	14586.19
491.41	14586.19
491.513	14586.19
491.617	14586.19
491.721	14586.19
491.824	14586.19
491.928	14586.19
492.032	14586.19
492.136	14586.19
492.239	14586.19
492.343	14586.19
492.446	14586.19
492.55	14586.19
492.654	14586.19
492.757	14586.19
492.861	14586.19
492.965	14586.19
493.068	14586.19
493.172	14586.19
493.275	14586.19
493.379	14586.19
493.482	14586.19
493.586	14586.19
493.689	14586.19
493.793	14586.19
493.896	14586.19
494	14586.19
494.103	14586.19
494.207	14586.19
494.31	14586.19
494.414	14586.19
494.517	14586.19
494.621	14586.19
494.724	14586.19
494.828	14586.19
494.931	14586.19
495.034	14586.19
495.138	14586.19
495.241	14586.19
495.345	14586.19
495.448	14586.19
495.551	14586.19
495.655	14586.19
495.758	14586.19
495.861	14586.19
495.965	14586.19
496.068	14586.19
496.171	14586.19
496.274	14586.19
496.378	14586.19
496.481	14586.19
496.584	14586.19
496.687	14586.19
496.791	14586.19
496.894	14586.19
496.997	14586.19
497.1	14586.19
497.204	14586.19
497.307	14586.19
497.41	14586.19
497.513	14586.19
497.616	14586.19
497.719	14586.19
497.823	14586.19
497.926	14586.19
498.029	14586.19
498.132	14586.19
498.235	14586.19
498.338	14586.19
498.441	14586.19
498.544	14586.19
498.647	14586.19
498.75	14586.19
498.853	14586.19
498.956	14586.19
499.059	14586.19
499.163	14586.19
499.266	14586.19
499.369	14586.19
499.471	14586.19
499.574	14586.19
499.677	14586.19
499.78	14586.19
499.883	14586.19
499.986	14586.19
500.089	14586.19
500.192	14586.19
500.295	14586.19
500.398	14586.19
500.501	14586.19
500.604	14586.19
500.707	14586.19
500.809	14586.19
500.912	14586.19
501.015	14586.19
501.118	14586.19
501.221	14586.19
501.324	14586.19
501.426	14586.19
501.529	14586.19
501.632	14586.19
501.735	14586.19
501.837	14586.19
501.94	14586.19
502.043	14586.19
502.146	14586.19
502.248	14586.19
502.351	14586.19
502.454	14586.19
502.557	14586.19
502.659	14586.19
502.762	14586.19
502.865	14586.19
502.967	14586.19
503.07	14586.19
503.173	14586.19
503.275	14586.19
503.378	14586.19
503.48	14586.19
503.583	14586.19
503.686	14578.19
503.788	14586.19
503.891	14586.19
503.993	14586.19
504.096	14586.19
504.198	14586.19
504.301	14586.19
504.403	14586.19
504.506	14586.19
504.608	14586.19
504.711	14369.19
504.813	13854.19
504.916	13257.19
505.018	12901.19
505.121	12540.19
505.223	12397.19
505.326	12231.19
505.428	12293.19
505.531	11926.19
505.633	11800.19
505.735	11658.19
505.838	11505.19
505.94	11408.19
506.042	11243.19
506.145	11262.19
506.247	11164.19
506.35	10975.19
506.452	11129.19
506.554	11050.19
506.656	10952.19
506.759	10740.19
506.861	10822.19
506.963	10717.19
507.066	10818.19
507.168	10955.19
507.27	10704.19
507.372	10546.19
507.475	10702.19
507.577	10513.19
507.679	10502.19
507.781	10393.19
507.883	10222.19
507.986	10109.19
508.088	10207.19
508.19	10092.19
508.292	10213.19
508.394	10122.19
508.496	10011.19
508.598	10055.19
508.701	10075.19
508.803	10098.19
508.905	9788.19
509.007	9893.19
509.109	10044.19
509.211	9877.19
509.313	9884.19
509.415	9826.19
509.517	9902.19
509.619	9840.19
509.721	9769.19
509.823	9828.19
509.925	9955.19
510.027	9854.19
510.129	9844.19
510.231	9717.19
510.333	9678.19
510.435	9799.19
510.537	9675.19
510.639	9799.19
510.741	9835.19
510.843	9751.19
510.945	9685.19
511.047	9835.19
511.148	9966.19
511.25	9715.19
511.352	9832.19
511.454	9750.19
511.556	9870.19
511.658	9712.19
511.76	9852.19
511.861	10026.19
511.963	9582.19
512.065	9696.19
512.167	9607.19
512.268	9907.19
512.37	9844.19
512.472	9929.19
512.574	9843.19
512.676	9926.19
512.777	9750.19
512.879	9679.19
512.981	9824.19
513.082	9950.19
513.184	9924.19
513.286	10297.19
513.387	10132.19
513.489	10193.19
513.591	10000.19
513.692	10123.19
513.794	10159.19
513.896	9993.19
513.997	10026.19
514.099	10108.19
514.2	10336.19
514.302	10400.19
514.404	10250.19
514.505	10152.19
514.607	10398.19
514.708	10482.19
514.81	10678.19
514.911	10591.19
515.013	10775.19
515.114	10852.19
515.216	10822.19
515.317	11112.19
515.419	11084.19
515.52	11173.19
515.622	11251.19
515.723	11343.19
515.825	11763.19
515.926	11723.19
516.027	11793.19
516.129	11905.19
516.23	12290.19
516.332	12541.19
516.433	12701.19
516.534	12888.19
516.636	13221.19
516.737	13657.19
516.838	14586.19
516.94	14556.19
517.041	14586.19
517.142	14586.19
517.244	14586.19
517.345	14586.19
517.446	14586.19
517.547	14586.19
517.649	14586.19
517.75	14586.19
517.851	14586.19
517.952	14586.19
518.054	14586.19
518.155	14586.19
518.256	14586.19
518.357	14586.19
518.458	14191.19
518.56	13836.19
518.661	13620.19
518.762	13531.19
518.863	13303.19
518.964	13139.19
519.065	12864.19
519.166	12749.19
519.268	12608.19
519.369	12815.19
519.47	12373.19
519.571	12270.19
519.672	12257.19
519.773	11977.19
519.874	12016.19
519.975	12020.19
520.076	11945.19
520.177	11948.19
520.278	11856.19
520.379	11900.19
520.48	11773.19
520.581	11843.19
520.682	11801.19
520.783	11791.19
520.884	11772.19
520.985	11807.19
521.086	11597.19
521.187	11711.19
521.288	11525.19
521.389	11490.19
521.489	11442.19
521.59	11409.19
521.691	11552.19
521.792	11378.19
521.893	11558.19
521.994	11567.19
522.095	11411.19
522.195	11441.19
522.296	11484.19
522.397	11369.19
522.498	11235.19
522.599	11316.19
522.699	11357.19
522.8	11204.19
522.901	11406.19
523.002	11472.19
523.102	11605.19
523.203	11281.19
523.304	11598.19
523.405	11184.19
523.505	11297.19
523.606	11407.19
523.707	11279.19
523.807	11306.19
523.908	11342.19
524.009	11451.19
524.109	11384.19
524.21	11311.19
524.31	11485.19
524.411	11550.19
524.512	11565.19
524.612	11497.19
524.713	11721.19
524.813	11477.19
524.914	11756.19
525.014	14586.19
525.115	11834.19
525.216	11491.19
525.316	11457.19
525.417	11486.19
525.517	11456.19
525.618	11520.19
525.718	11493.19
525.819	11569.19
525.919	11628.19
526.019	11575.19
526.12	11599.19
526.22	11556.19
526.321	11595.19
526.421	11526.19
526.522	11458.19
526.622	11494.19
526.722	11303.19
526.823	11669.19
526.923	11649.19
527.023	11805.19
527.124	11560.19
527.224	11722.19
527.324	11537.19
527.425	11743.19
527.525	11550.19
527.625	11488.19
527.726	11485.19
527.826	11671.19
527.926	11723.19
528.026	11639.19
528.127	11594.19
528.227	11726.19
528.327	11656.19
528.427	11599.19
528.528	11657.19
528.628	11560.19
528.728	11538.19
528.828	11572.19
528.928	11619.19
529.029	11461.19
529.129	11557.19
529.229	11574.19
529.329	11574.19
529.429	11654.19
529.529	11592.19
529.629	11648.19
529.729	11439.19
529.829	11681.19
529.93	11399.19
530.03	11536.19
530.13	11462.19
530.23	11456.19
530.33	11542.19
530.43	11563.19
530.53	11504.19
530.63	11482.19
530.73	11412.19
530.83	11443.19
530.93	11325.19
531.03	11303.19
531.13	11492.19
531.23	11382.19
531.33	11503.19
531.429	11557.19
531.529	11561.19
531.629	11448.19
531.729	11339.19
531.829	11399.19
531.929	11425.19
532.029	11463.19
532.129	11295.19
532.229	11385.19
532.328	11332.19
532.428	11318.19
532.528	11174.19
532.628	11069.19
532.728	11226.19
532.827	11130.19
532.927	11308.19
533.027	11115.19
533.127	11206.19
533.227	10971.19
533.326	11130.19
533.426	11056.19
533.526	11126.19
533.625	11044.19
533.725	11320.19
533.825	10991.19
533.924	10825.19
534.024	10606.19
534.124	10789.19
534.223	10662.19
534.323	11174.19
534.423	10607.19
534.522	10530.19
534.622	10504.19
534.722	10568.19
534.821	10572.19
534.921	10539.19
535.02	10368.19
535.12	10430.19
535.219	10534.19
535.319	10335.19
535.419	10152.19
535.518	10173.19
535.618	10181.19
535.717	10366.19
535.817	10022.19
535.916	9917.19
536.016	9893.19
536.115	9926.19
536.215	9828.19
536.314	9753.19
536.413	9569.19
536.513	9670.19
536.612	9554.19
536.712	9488.19
536.811	9471.19
536.91	9422.19
537.01	9477.19
537.109	9524.19
537.209	9536.19
537.308	9590.19
537.407	9357.19
537.507	9405.19
537.606	9336.19
537.705	9441.19
537.805	9331.19
537.904	9265.19
538.003	9260.19
538.102	9413.19
538.202	9298.19
538.301	9296.19
538.4	9083.19
538.499	9025.19
538.599	9069.19
538.698	9358.19
538.797	9054.19
538.896	9218.19
538.995	9016.19
539.095	8901.19
539.194	9141.19
539.293	9001.19
539.392	8904.19
539.491	8899.19
539.59	8879.19
539.689	8950.19
539.789	8883.19
539.888	8646.19
539.987	8765.19
540.086	8687.19
540.185	8745.19
540.284	8729.19
540.383	8566.19
540.482	8600.19
540.581	8693.19
540.68	8557.19
540.779	8695.19
540.878	8534.19
540.977	8569.19
541.076	8495.19
541.175	8553.19
541.274	8638.19
541.373	8610.19
541.472	8454.19
541.571	8429.19
541.67	9952.19
541.769	8524.19
541.868	8380.19
541.966	8385.19
542.065	8307.19
542.164	8402.19
542.263	8236.19
542.362	8321.19
542.461	8472.19
542.56	8348.19
542.658	8393.19
542.757	8343.19
542.856	8129.19
542.955	8085.19
543.054	8217.19
543.152	8333.19
543.251	8180.19
543.35	8416.19
543.449	8211.19
543.547	8200.19
543.646	8071.19
543.745	8360.19
543.843	8356.19
543.942	8242.19
544.041	8356.19
544.14	8232.19
544.238	8272.19
544.337	8567.19
544.436	8359.19
544.534	8536.19
544.633	8513.19
544.731	8387.19
544.83	8337.19
544.929	8404.19
545.027	8552.19
545.126	8603.19
545.224	8580.19
545.323	8566.19
545.421	8605.19
545.52	8545.19
545.619	8597.19
545.717	8420.19
545.816	8486.19
545.914	8487.19
546.013	8656.19
546.111	8615.19
546.209	8393.19
546.308	8313.19
546.406	8301.19
546.505	8535.19
546.603	8384.19
546.702	8168.19
546.8	8248.19
546.899	8192.19
546.997	8384.19
547.095	8316.19
547.194	8351.19
547.292	8426.19
547.39	8461.19
547.489	8338.19
547.587	8846.19
547.685	8505.19
547.784	8814.19
547.882	8630.19
547.98	8472.19
548.079	8536.19
548.177	8474.19
548.275	8449.19
548.373	8638.19
548.472	8358.19
548.57	8380.19
548.668	8539.19
548.766	8348.19
548.864	8593.19
548.963	8482.19
549.061	8740.19
549.159	8606.19
549.257	8665.19
549.355	8729.19
549.454	8836.19
549.552	8867.19
549.65	8716.19
549.748	8716.19
549.846	8644.19
549.944	8623.19
550.042	8468.19
550.14	8434.19
550.238	8299.19
550.336	8208.19
550.434	8186.19
550.532	8272.19
550.631	8323.19
550.729	8344.19
550.827	8294.19
550.925	8039.19
551.023	8236.19
551.121	8211.19
551.218	8047.19
551.316	8149.19
551.414	8318.19
551.512	8246.19
551.61	8392.19
551.708	8510.19
551.806	8556.19
551.904	8416.19
552.002	8430.19
552.1	8728.19
552.198	8679.19
552.296	9074.19
552.393	9148.19
552.491	9304.19
552.589	9347.19
552.687	9528.19
552.785	9501.19
552.882	9775.19
552.98	10016.19
553.078	9973.19
553.176	9970.19
553.274	9814.19
553.371	9912.19
553.469	9834.19
553.567	9637.19
553.665	9560.19
553.762	9734.19
553.86	9282.19
553.958	9238.19
554.055	9060.19
554.153	8989.19
554.251	8872.19
554.348	8813.19
554.446	8652.19
554.544	8594.19
554.641	8946.19
554.739	8448.19
554.837	8421.19
554.934	8457.19
555.032	8398.19
555.129	8245.19
555.227	8577.19
555.324	11663.19
555.422	8435.19
555.519	8046.19
555.617	7962.19
555.715	7843.19
555.812	8325.19
555.91	7765.19
556.007	7945.19
556.105	7801.19
556.202	7776.19
556.299	7681.19
556.397	7779.19
556.494	7724.19
556.592	7670.19
556.689	7698.19
556.787	7576.19
556.884	7521.19
556.981	7674.19
557.079	7436.19
557.176	7705.19
557.273	7633.19
557.371	7697.19
557.468	7694.19
557.566	7647.19
557.663	7623.19
557.76	7876.19
557.857	7572.19
557.955	7511.19
558.052	7687.19
558.149	7837.19
558.247	7798.19
558.344	7664.19
558.441	7633.19
558.538	7714.19
558.636	7576.19
558.733	7768.19
558.83	7644.19
558.927	7741.19
559.024	7747.19
559.122	7500.19
559.219	7621.19
559.316	7752.19
559.413	7846.19
559.51	7609.19
559.607	7617.19
559.704	7768.19
559.801	7783.19
559.899	7703.19
559.996	8023.19
560.093	7732.19
560.19	7633.19
560.287	7915.19
560.384	7853.19
560.481	7628.19
560.578	7744.19
560.675	7654.19
560.772	7909.19
560.869	7793.19
560.966	8017.19
561.063	7757.19
561.16	7972.19
561.257	8006.19
561.354	7839.19
561.451	7816.19
561.548	8033.19
561.645	8160.19
561.742	8002.19
561.838	7899.19
561.935	8051.19
562.032	7982.19
562.129	7844.19
562.226	7970.19
562.323	8055.19
562.42	8148.19
562.516	8115.19
562.613	8039.19
562.71	8065.19
562.807	9105.19
562.904	8128.19
563	8284.19
563.097	8270.19
563.194	8245.19
563.291	8275.19
563.387	8412.19
563.484	8506.19
563.581	8489.19
563.678	8418.19
563.774	8921.19
563.871	8631.19
563.968	8672.19
564.064	8783.19
564.161	8748.19
564.258	8773.19
564.354	9090.19
564.451	9084.19
564.548	9138.19
564.644	9112.19
564.741	9388.19
564.837	9343.19
564.934	9442.19
565.031	9767.19
565.127	9878.19
565.224	10067.19
565.32	10445.19
565.417	10348.19
565.513	10562.19
565.61	10996.19
565.706	11231.19
565.803	11499.19
565.899	11733.19
565.996	12357.19
566.092	12714.19
566.189	13245.19
566.285	14102.19
566.382	14586.19
566.478	14586.19
566.574	14586.19
566.671	14586.19
566.767	14586.19
566.864	14586.19
566.96	14586.19
567.056	14586.19
567.153	14586.19
567.249	14586.19
567.345	14586.19
567.442	14586.19
567.538	14586.19
567.634	14586.19
567.731	14586.19
567.827	14586.19
567.923	14586.19
568.019	14586.19
568.116	14586.19
568.212	14586.19
568.308	14586.19
568.404	14586.19
568.501	14224.19
568.597	13684.19
568.693	13148.19
568.789	13630.19
568.885	12045.19
568.982	11693.19
569.078	11247.19
569.174	10881.19
569.27	10485.19
569.366	10354.19
569.462	10276.19
569.558	10038.19
569.655	9972.19
569.751	9786.19
569.847	9703.19
569.943	9598.19
570.039	9405.19
570.135	9898.19
570.231	9484.19
570.327	9790.19
570.423	9491.19
570.519	9523.19
570.615	9636.19
570.711	9624.19
570.807	9750.19
570.903	9672.19
570.999	9729.19
571.095	9672.19
571.191	9399.19
571.287	9149.19
571.383	8936.19
571.479	8784.19
571.574	8733.19
571.67	8502.19
571.766	8588.19
571.862	8214.19
571.958	8128.19
572.054	8134.19
572.15	7975.19
572.246	7952.19
572.341	8096.19
572.437	7826.19
572.533	7970.19
572.629	7776.19
572.725	7691.19
572.82	7910.19
572.916	7809.19
573.012	7541.19
573.108	7540.19
573.203	7487.19
573.299	7446.19
573.395	7369.19
573.49	7415.19
573.586	7286.19
573.682	7336.19
573.778	7577.19
573.873	7304.19
573.969	7331.19
574.065	7258.19
574.16	7288.19
574.256	7229.19
574.351	7438.19
574.447	7230.19
574.543	7336.19
574.638	7409.19
574.734	7370.19
574.829	7376.19
574.925	7150.19
575.02	7072.19
575.116	7001.19
575.212	6962.19
575.307	7120.19
575.403	7020.19
575.498	6880.19
575.594	6812.19
575.689	6836.19
575.784	6768.19
575.88	6801.19
575.975	6810.19
576.071	6640.19
576.166	6665.19
576.262	6759.19
576.357	6559.19
576.452	6863.19
576.548	6594.19
576.643	6613.19
576.739	6603.19
576.834	6553.19
576.929	6611.19
577.025	6763.19
577.12	6257.19
577.215	6513.19
577.311	6504.19
577.406	6451.19
577.501	6545.19
577.597	6053.19
577.692	6441.19
577.787	6281.19
577.882	6194.19
577.978	6127.19
578.073	6187.19
578.168	6000.19
578.263	6050.19
578.358	6018.19
578.454	6045.19
578.549	5925.19
578.644	5914.19
578.739	6020.19
578.834	5867.19
578.929	5819.19
579.025	5825.19
579.12	5987.19
579.215	6091.19
579.31	6031.19
579.405	5796.19
579.5	5893.19
579.595	5861.19
579.69	5692.19
579.785	5595.19
579.88	5609.19
579.975	5688.19
580.07	5514.19
580.165	5614.19
580.26	5805.19
580.355	5602.19
580.45	5477.19
580.545	5375.19
580.64	5512.19
580.735	5698.19
580.83	5475.19
580.925	5440.19
581.02	5368.19
581.115	5293.19
581.21	5213.19
581.305	5341.19
581.4	5291.19
581.495	5270.19
581.589	5346.19
581.684	5207.19
581.779	5394.19
581.874	5309.19
581.969	5320.19
582.064	5112.19
582.158	5086.19
582.253	5123.19
582.348	5169.19
582.443	5237.19
582.537	5140.19
582.632	5344.19
582.727	5182.19
582.822	5037.19
582.916	4911.19
583.011	5077.19
583.106	5152.19
583.201	4905.19
583.295	4977.19
583.39	4991.19
583.485	4904.19
583.579	7344.19
583.674	5153.19
583.769	5156.19
583.863	4800.19
583.958	4913.19
584.052	4830.19
584.147	4800.19
584.242	4775.19
584.336	4926.19
584.431	5106.19
584.525	4774.19
584.62	5087.19
584.714	4929.19
584.809	4948.19
584.903	4843.19
584.998	4842.19
585.092	4721.19
585.187	4787.19
585.281	4681.19
585.376	4772.19
585.47	4851.19
585.565	4850.19
585.659	4689.19
585.754	4725.19
585.848	4792.19
585.942	4674.19
586.037	4613.19
586.131	7337.19
586.226	4850.19
586.32	4693.19
586.414	4561.19
586.509	4765.19
586.603	4707.19
586.697	4688.19
586.792	4631.19
586.886	4631.19
586.98	4742.19
587.075	4666.19
587.169	4549.19
587.263	4783.19
587.357	4615.19
587.452	4479.19
587.546	4742.19
587.64	4575.19
587.734	4669.19
587.829	4735.19
587.923	4683.19
588.017	4853.19
588.111	4758.19
588.205	4988.19
588.3	4940.19
588.394	5083.19
588.488	5358.19
588.582	5956.19
588.676	7104.19
588.77	12553.19
588.864	14586.19
588.958	14586.19
589.052	14586.19
589.147	11018.19
589.241	8315.19
589.335	8821.19
589.429	14586.19
589.523	14586.19
589.617	14586.19
589.711	10004.19
589.805	7091.19
589.899	5896.19
589.993	5249.19
590.087	5029.19
590.181	4882.19
590.275	4925.19
590.369	4706.19
590.462	4654.19
590.556	4634.19
590.65	4590.19
590.744	4639.19
590.838	4613.19
590.932	4524.19
591.026	4591.19
591.12	4783.19
591.214	4628.19
591.307	4783.19
591.401	4704.19
591.495	4710.19
591.589	4665.19
591.683	4723.19
591.777	4793.19
591.87	5203.19
591.964	4935.19
592.058	4865.19
592.152	5034.19
592.245	5043.19
592.339	5178.19
592.433	5251.19
592.527	5308.19
592.62	5431.19
592.714	5490.19
592.808	5738.19
592.901	5724.19
592.995	5648.19
593.089	5936.19
593.182	5868.19
593.276	5622.19
593.37	5698.19
593.463	5687.19
593.557	5657.19
593.65	5729.19
593.744	5780.19
593.837	5973.19
593.931	5850.19
594.025	9353.19
594.118	6158.19
594.212	5786.19
594.305	5641.19
594.399	5674.19
594.492	5737.19
594.586	5273.19
594.679	5033.19
594.773	5017.19
594.866	4920.19
594.96	4770.19
595.053	4755.19
595.146	4712.19
595.24	4583.19
595.333	4608.19
595.427	4396.19
595.52	4363.19
595.614	4488.19
595.707	4230.19
595.8	4188.19
595.894	4151.19
595.987	4025.19
596.08	3928.19
596.174	4208.19
596.267	4105.19
596.36	4040.19
596.454	4003.19
596.547	4015.19
596.64	3823.19
596.733	3755.19
596.827	3893.19
596.92	3796.19
597.013	3650.19
597.106	3556.19
597.2	3607.19
597.293	3596.19
597.386	3799.19
597.479	3695.19
597.572	3622.19
597.666	3587.19
597.759	3634.19
597.852	3675.19
597.945	3551.19
598.038	3535.19
598.131	3384.19
598.224	3505.19
598.317	3624.19
598.411	3539.19
598.504	3422.19
598.597	3479.19
598.69	3477.19
598.783	3445.19
598.876	3480.19
598.969	3479.19
599.062	3357.19
599.155	3431.19
599.248	3367.19
599.341	3405.19
599.434	3379.19
599.527	3449.19
599.62	3361.19
599.713	3294.19
599.806	3412.19
599.899	3589.19
599.991	3296.19
600.084	3560.19
600.177	3351.19
600.27	3319.19
600.363	3515.19
600.456	3335.19
600.549	3323.19
600.642	3169.19
600.734	3351.19
600.827	3308.19
600.92	3421.19
601.013	3357.19
601.106	3371.19
601.199	3228.19
601.291	3168.19
601.384	3303.19
601.477	3428.19
601.57	3285.19
601.662	3237.19
601.755	3216.19
601.848	3226.19
601.94	3114.19
602.033	3344.19
602.126	3212.19
602.219	3166.19
602.311	3368.19
602.404	3220.19
602.497	3228.19
602.589	3207.19
602.682	3195.19
602.774	3252.19
602.867	3223.19
602.96	3128.19
603.052	3197.19
603.145	3177.19
603.237	3158.19
603.33	3144.19
603.422	3262.19
603.515	3097.19
603.608	3115.19
603.7	3087.19
603.793	3132.19
603.885	3167.19
603.978	3093.19
604.07	3136.19
604.163	3027.19
604.255	3190.19
604.347	3126.19
604.44	3091.19
604.532	3197.19
604.625	3112.19
604.717	3095.19
604.81	3194.19
604.902	3079.19
604.994	3081.19
605.087	3093.19
605.179	3119.19
605.271	3097.19
605.364	3012.19
605.456	3168.19
605.548	3058.19
605.641	3079.19
605.733	2946.19
605.825	3037.19
605.918	3053.19
606.01	3233.19
606.102	3324.19
606.194	3065.19
606.287	3172.19
606.379	3088.19
606.471	3086.19
606.563	3094.19
606.655	3123.19
606.748	3086.19
606.84	2998.19
606.932	2997.19
607.024	2921.19
607.116	2973.19
607.208	2980.19
607.301	3070.19
607.393	3038.19
607.485	3032.19
607.577	3116.19
607.669	3047.19
607.761	3071.19
607.853	3368.19
607.945	2971.19
608.037	2853.19
608.129	2951.19
608.221	2879.19
608.313	3006.19
608.405	2944.19
608.497	2958.19
608.589	2965.19
608.681	2941.19
608.773	3023.19
608.865	3062.19
608.957	3021.19
609.049	2901.19
609.141	3013.19
609.233	3024.19
609.325	2886.19
609.417	2905.19
609.509	3016.19
609.601	3087.19
609.693	3055.19
609.784	3006.19
609.876	2956.19
609.968	2934.19
610.06	5442.19
610.152	3144.19
610.244	3284.19
610.335	2851.19
610.427	2924.19
610.519	2877.19
610.611	2889.19
610.702	2881.19
610.794	2842.19
610.886	2908.19
610.978	2799.19
611.069	3263.19
611.161	2743.19
611.253	2883.19
611.344	2685.19
611.436	2524.19
611.528	2725.19
611.62	2652.19
611.711	2550.19
611.803	2546.19
611.894	2509.19
611.986	2457.19
612.078	2488.19
612.169	2502.19
612.261	2370.19
612.352	2310.19
612.444	2320.19
612.536	2451.19
612.627	2265.19
612.719	2184.19
612.81	2193.19
612.902	2058.19
612.993	2096.19
613.085	2098.19
613.176	1984.19
613.268	2029.19
613.359	1997.19
613.451	1892.19
613.542	1935.19
613.634	1917.19
613.725	1903.19
613.816	1937.19
613.908	1776.19
613.999	1722.19
614.091	1624.19
614.182	1625.19
614.273	1689.19
614.365	1611.19
614.456	1503.19
614.547	1554.19
614.639	1491.19
614.73	1468.19
614.821	1504.19
614.913	1337.19
615.004	1323.19
615.095	1272.19
615.187	1279.19
