Data from 35g_HRC06701__20__447.txt Node

Date: Thu Apr 18 02:31:52 CDT 2024
User: Estudiantes 2
Spectrometer: HR+C0670
Trigger mode: 4
Integration Time (sec): 1.000000E0
Scans to average: 1
Electric dark correction enabled: true
Nonlinearity correction enabled: false
Boxcar width: 0
XAxis mode: Wavelengths
Number of Pixels in Spectrum: 2048
>>>>>Begin Spectral Data<<<<<
407.81	-118.5
407.921	-118.5
408.032	-118.5
408.143	-163.5
408.254	-136.5
408.365	84.5
408.476	264.5
408.587	-39.5
408.699	1.5
408.81	3.5
408.921	-61.5
409.032	-56.5
409.143	44.5
409.254	20.5
409.365	70.5
409.476	22.5
409.587	11.5
409.698	52.5
409.809	112.5
409.92	10.5
410.031	-35.5
410.142	69.5
410.253	24.5
410.364	23.5
410.475	634.5
410.585	3154.5
410.696	3360.5
410.807	3262.5
410.918	3313.5
411.029	3346.5
411.14	3388.5
411.251	3335.5
411.362	3375.5
411.472	3436.5
411.583	3338.5
411.694	3593.5
411.805	3383.5
411.916	3484.5
412.026	3617.5
412.137	3460.5
412.248	3485.5
412.359	3437.5
412.47	3317.5
412.58	3273.5
412.691	3381.5
412.802	3265.5
412.912	3349.5
413.023	3285.5
413.134	3346.5
413.245	3391.5
413.355	3374.5
413.466	3382.5
413.577	3302.5
413.687	3393.5
413.798	3261.5
413.909	3432.5
414.019	3437.5
414.13	3483.5
414.24	3335.5
414.351	3484.5
414.462	3690.5
414.572	3497.5
414.683	3428.5
414.793	3392.5
414.904	3796.5
415.014	3396.5
415.125	3403.5
415.235	3430.5
415.346	3558.5
415.456	3501.5
415.567	3392.5
415.677	3307.5
415.788	3417.5
415.898	3375.5
416.009	3320.5
416.119	3300.5
416.23	3359.5
416.34	3391.5
416.45	3457.5
416.561	3989.5
416.671	3505.5
416.782	3416.5
416.892	3430.5
417.002	3589.5
417.113	3556.5
417.223	3526.5
417.333	3415.5
417.444	3556.5
417.554	3544.5
417.664	3628.5
417.775	3536.5
417.885	3659.5
417.995	3631.5
418.106	3973.5
418.216	3749.5
418.326	3856.5
418.436	3896.5
418.547	3884.5
418.657	3885.5
418.767	4039.5
418.877	4056.5
418.987	3907.5
419.098	3883.5
419.208	4059.5
419.318	3954.5
419.428	3997.5
419.538	3973.5
419.648	4017.5
419.759	4056.5
419.869	3951.5
419.979	3942.5
420.089	3982.5
420.199	3876.5
420.309	3950.5
420.419	4001.5
420.529	3987.5
420.639	4215.5
420.749	4003.5
420.859	4111.5
420.969	4172.5
421.079	4351.5
421.189	4156.5
421.299	4085.5
421.409	4037.5
421.519	4257.5
421.629	4214.5
421.739	4225.5
421.849	4135.5
421.959	4226.5
422.069	4400.5
422.179	4300.5
422.289	4364.5
422.399	4502.5
422.509	4634.5
422.619	7804.5
422.729	4880.5
422.838	4498.5
422.948	4601.5
423.058	4679.5
423.168	4757.5
423.278	4752.5
423.388	4879.5
423.498	5052.5
423.607	4889.5
423.717	5244.5
423.827	5246.5
423.937	5081.5
424.046	5036.5
424.156	5119.5
424.266	5027.5
424.376	5298.5
424.485	5159.5
424.595	5104.5
424.705	5041.5
424.815	5084.5
424.924	5609.5
425.034	5115.5
425.144	5024.5
425.253	5121.5
425.363	5223.5
425.473	5269.5
425.582	5078.5
425.692	5140.5
425.801	5067.5
425.911	5357.5
426.021	5291.5
426.13	5377.5
426.24	5464.5
426.349	5412.5
426.459	5258.5
426.568	5339.5
426.678	5401.5
426.787	5331.5
426.897	5308.5
427.006	5465.5
427.116	5474.5
427.225	5321.5
427.335	5660.5
427.444	5454.5
427.554	5457.5
427.663	5551.5
427.773	5594.5
427.882	5647.5
427.992	5521.5
428.101	5605.5
428.21	5493.5
428.32	5729.5
428.429	5607.5
428.539	6061.5
428.648	5706.5
428.757	5785.5
428.867	5880.5
428.976	6002.5
429.085	5877.5
429.195	5948.5
429.304	5969.5
429.413	6096.5
429.523	5970.5
429.632	5931.5
429.741	5967.5
429.85	5914.5
429.96	6122.5
430.069	6100.5
430.178	6101.5
430.287	6525.5
430.397	6263.5
430.506	6109.5
430.615	6284.5
430.724	6364.5
430.833	6314.5
430.943	6276.5
431.052	6376.5
431.161	6412.5
431.27	6628.5
431.379	6706.5
431.488	6876.5
431.597	6854.5
431.706	6992.5
431.816	6843.5
431.925	6841.5
432.034	6903.5
432.143	6812.5
432.252	6789.5
432.361	6970.5
432.47	6860.5
432.579	6735.5
432.688	6732.5
432.797	6902.5
432.906	6674.5
433.015	6936.5
433.124	7291.5
433.233	7035.5
433.342	6881.5
433.451	7053.5
433.56	6949.5
433.669	7014.5
433.778	7012.5
433.886	7204.5
433.995	7136.5
434.104	7369.5
434.213	7515.5
434.322	7497.5
434.431	7771.5
434.54	8147.5
434.649	8168.5
434.757	8118.5
434.866	7892.5
434.975	7801.5
435.084	7600.5
435.193	7526.5
435.301	7529.5
435.41	7621.5
435.519	7639.5
435.628	6897.5
435.737	6843.5
435.845	6731.5
435.954	6724.5
436.063	6481.5
436.171	6617.5
436.28	6714.5
436.389	6795.5
436.498	6517.5
436.606	6622.5
436.715	6808.5
436.823	6495.5
436.932	6329.5
437.041	6356.5
437.149	6330.5
437.258	6180.5
437.367	6146.5
437.475	6208.5
437.584	6423.5
437.692	6188.5
437.801	7792.5
437.91	6130.5
438.018	5983.5
438.127	5942.5
438.235	6121.5
438.344	6076.5
438.452	6034.5
438.561	5914.5
438.669	5941.5
438.778	5921.5
438.886	5870.5
438.995	5884.5
439.103	6078.5
439.212	5993.5
439.32	5989.5
439.428	6014.5
439.537	6060.5
439.645	6175.5
439.754	6165.5
439.862	6013.5
439.97	6202.5
440.079	6217.5
440.187	6113.5
440.295	6296.5
440.404	6213.5
440.512	6399.5
440.62	6371.5
440.729	6361.5
440.837	6563.5
440.945	7312.5
441.054	6784.5
441.162	6688.5
441.27	7111.5
441.378	7288.5
441.487	7169.5
441.595	7625.5
441.703	7148.5
441.811	6923.5
441.92	6945.5
442.028	6693.5
442.136	6828.5
442.244	6709.5
442.352	6788.5
442.461	6590.5
442.569	6712.5
442.677	6777.5
442.785	6722.5
442.893	6568.5
443.001	6690.5
443.109	6537.5
443.217	6669.5
443.325	6860.5
443.434	7470.5
443.542	7176.5
443.65	6978.5
443.758	7242.5
443.866	7175.5
443.974	7596.5
444.082	7500.5
444.19	7806.5
444.298	8001.5
444.406	8355.5
444.514	8399.5
444.622	8525.5
444.73	8528.5
444.838	8215.5
444.946	8011.5
445.054	7642.5
445.161	7388.5
445.269	7134.5
445.377	7189.5
445.485	7135.5
445.593	6812.5
445.701	7065.5
445.809	6875.5
445.917	6760.5
446.025	6643.5
446.132	6900.5
446.24	6832.5
446.348	6649.5
446.456	6454.5
446.564	6616.5
446.671	6620.5
446.779	6483.5
446.887	6551.5
446.995	6435.5
447.102	6507.5
447.21	6519.5
447.318	6383.5
447.426	6317.5
447.533	6701.5
447.641	7699.5
447.749	6397.5
447.856	6425.5
447.964	6418.5
448.072	6446.5
448.179	6172.5
448.287	6422.5
448.395	6462.5
448.502	6262.5
448.61	6527.5
448.718	6284.5
448.825	6437.5
448.933	6446.5
449.04	6425.5
449.148	6403.5
449.256	6407.5
449.363	6565.5
449.471	6613.5
449.578	6695.5
449.686	6609.5
449.793	6851.5
449.901	6597.5
450.008	6873.5
450.116	6903.5
450.223	6808.5
450.331	7043.5
450.438	7097.5
450.546	7161.5
450.653	7307.5
450.76	7362.5
450.868	7294.5
450.975	7528.5
451.083	7437.5
451.19	7506.5
451.297	7419.5
451.405	7480.5
451.512	7410.5
451.619	7595.5
451.727	7534.5
451.834	7541.5
451.941	7447.5
452.049	7616.5
452.156	7633.5
452.263	7547.5
452.371	7687.5
452.478	7757.5
452.585	7807.5
452.692	7718.5
452.8	7798.5
452.907	8040.5
453.014	7893.5
453.121	7999.5
453.229	8080.5
453.336	8057.5
453.443	8053.5
453.55	7955.5
453.657	7809.5
453.765	8199.5
453.872	8153.5
453.979	8139.5
454.086	8197.5
454.193	8202.5
454.3	8105.5
454.407	8422.5
454.514	8469.5
454.621	8245.5
454.729	8162.5
454.836	8304.5
454.943	8545.5
455.05	8331.5
455.157	8592.5
455.264	8370.5
455.371	8483.5
455.478	8414.5
455.585	8945.5
455.692	8658.5
455.799	8810.5
455.906	8656.5
456.013	8691.5
456.12	8703.5
456.227	8831.5
456.334	8957.5
456.44	8940.5
456.547	8840.5
456.654	8875.5
456.761	9001.5
456.868	9064.5
456.975	9136.5
457.082	9066.5
457.189	9086.5
457.296	9173.5
457.402	9279.5
457.509	9163.5
457.616	9498.5
457.723	9829.5
457.83	9579.5
457.936	9803.5
458.043	10205.5
458.15	9862.5
458.257	10199.5
458.363	10245.5
458.47	10473.5
458.577	10713.5
458.684	10729.5
458.79	11399.5
458.897	11276.5
459.004	11685.5
459.11	11636.5
459.217	11640.5
459.324	11782.5
459.43	12226.5
459.537	12518.5
459.644	12477.5
459.75	12767.5
459.857	13413.5
459.964	13366.5
460.07	13460.5
460.177	13626.5
460.283	13619.5
460.39	14002.5
460.496	13805.5
460.603	13764.5
460.71	13661.5
460.816	13610.5
460.923	13484.5
461.029	13519.5
461.136	13417.5
461.242	13563.5
461.349	13462.5
461.455	13663.5
461.562	13933.5
461.668	13943.5
461.774	13804.5
461.881	14143.5
461.987	14466.5
462.094	14578.5
462.2	14578.5
462.307	14578.5
462.413	14578.5
462.519	14578.5
462.626	14578.5
462.732	14578.5
462.838	14578.5
462.945	14578.5
463.051	14578.5
463.157	14578.5
463.264	14578.5
463.37	14578.5
463.476	14578.5
463.583	14578.5
463.689	14578.5
463.795	14578.5
463.901	14578.5
464.008	14578.5
464.114	14578.5
464.22	14578.5
464.326	14578.5
464.433	14578.5
464.539	14578.5
464.645	14375.5
464.751	14278.5
464.857	13918.5
464.963	13186.5
465.07	12748.5
465.176	12175.5
465.282	11868.5
465.388	11628.5
465.494	11220.5
465.6	10958.5
465.706	10600.5
465.812	10629.5
465.918	10689.5
466.024	10515.5
466.131	10365.5
466.237	10160.5
466.343	9858.5
466.449	9784.5
466.555	9658.5
466.661	9433.5
466.767	9429.5
466.873	9261.5
466.979	9478.5
467.085	9261.5
467.191	9387.5
467.296	9288.5
467.402	9390.5
467.508	9182.5
467.614	9143.5
467.72	8836.5
467.826	8737.5
467.932	8612.5
468.038	8453.5
468.144	8487.5
468.25	8287.5
468.355	8476.5
468.461	8523.5
468.567	8388.5
468.673	8432.5
468.779	8365.5
468.885	8365.5
468.99	8289.5
469.096	8560.5
469.202	8504.5
469.308	8313.5
469.413	8735.5
469.519	8617.5
469.625	8632.5
469.731	8817.5
469.836	8775.5
469.942	8963.5
470.048	8850.5
470.153	8916.5
470.259	8862.5
470.365	8939.5
470.47	8990.5
470.576	8676.5
470.682	8660.5
470.787	8476.5
470.893	8377.5
470.999	8282.5
471.104	8058.5
471.21	7936.5
471.315	7808.5
471.421	7786.5
471.527	7959.5
471.632	7708.5
471.738	7628.5
471.843	7583.5
471.949	7478.5
472.054	7542.5
472.16	7345.5
472.265	7300.5
472.371	7192.5
472.476	7152.5
472.582	7280.5
472.687	7100.5
472.793	7078.5
472.898	7184.5
473.003	6946.5
473.109	6842.5
473.214	6880.5
473.32	6964.5
473.425	6981.5
473.53	6887.5
473.636	6876.5
473.741	6766.5
473.847	6870.5
473.952	6939.5
474.057	6883.5
474.163	6994.5
474.268	6851.5
474.373	6859.5
474.478	6721.5
474.584	6705.5
474.689	6789.5
474.794	6907.5
474.9	7153.5
475.005	6847.5
475.11	7018.5
475.215	6903.5
475.321	6902.5
475.426	7046.5
475.531	7017.5
475.636	6938.5
475.741	6855.5
475.846	7253.5
475.952	7255.5
476.057	7032.5
476.162	7176.5
476.267	7167.5
476.372	7546.5
476.477	7066.5
476.582	7255.5
476.687	7243.5
476.793	7222.5
476.898	7395.5
477.003	7435.5
477.108	7435.5
477.213	7468.5
477.318	7512.5
477.423	7833.5
477.528	7884.5
477.633	8032.5
477.738	8046.5
477.843	8054.5
477.948	8201.5
478.053	8332.5
478.158	8300.5
478.263	8324.5
478.368	8444.5
478.473	8608.5
478.578	8709.5
478.682	8639.5
478.787	8738.5
478.892	8743.5
478.997	8834.5
479.102	9000.5
479.207	8802.5
479.312	9002.5
479.417	8848.5
479.521	8936.5
479.626	9092.5
479.731	8968.5
479.836	9242.5
479.941	9320.5
480.045	9702.5
480.15	9833.5
480.255	9876.5
480.36	9944.5
480.465	9851.5
480.569	9846.5
480.674	9425.5
480.779	9328.5
480.883	9154.5
480.988	9168.5
481.093	9175.5
481.197	9032.5
481.302	8960.5
481.407	9042.5
481.511	10375.5
481.616	9011.5
481.721	8880.5
481.825	9099.5
481.93	8955.5
482.035	8904.5
482.139	9005.5
482.244	9057.5
482.348	9110.5
482.453	9193.5
482.557	9122.5
482.662	9208.5
482.767	9196.5
482.871	9265.5
482.976	9249.5
483.08	9348.5
483.185	9647.5
483.289	9520.5
483.394	9596.5
483.498	9708.5
483.603	9627.5
483.707	9870.5
483.811	9863.5
483.916	9914.5
484.02	10073.5
484.125	10382.5
484.229	10406.5
484.333	10431.5
484.438	10378.5
484.542	10472.5
484.647	10564.5
484.751	10666.5
484.855	10880.5
484.96	10823.5
485.064	10963.5
485.168	11138.5
485.273	11069.5
485.377	11075.5
485.481	11464.5
485.585	11335.5
485.69	11384.5
485.794	11422.5
485.898	11354.5
486.002	11471.5
486.107	11515.5
486.211	11512.5
486.315	11468.5
486.419	11720.5
486.524	11727.5
486.628	11509.5
486.732	11516.5
486.836	11628.5
486.94	11695.5
487.044	11510.5
487.148	11551.5
487.253	11535.5
487.357	11747.5
487.461	11729.5
487.565	11688.5
487.669	11612.5
487.773	11388.5
487.877	11676.5
487.981	11653.5
488.085	11612.5
488.189	11472.5
488.293	11641.5
488.397	11988.5
488.501	11631.5
488.605	11505.5
488.709	11608.5
488.813	11407.5
488.917	11452.5
489.021	11574.5
489.125	11757.5
489.229	11514.5
489.333	11837.5
489.437	11637.5
489.541	11717.5
489.645	11657.5
489.749	11783.5
489.853	11686.5
489.956	11718.5
490.06	11665.5
490.164	11733.5
490.268	11661.5
490.372	11617.5
490.476	11649.5
490.579	11702.5
490.683	12394.5
490.787	11569.5
490.891	11599.5
490.995	11698.5
491.098	11625.5
491.202	11492.5
491.306	11608.5
491.41	11596.5
491.513	11682.5
491.617	11539.5
491.721	11770.5
491.824	11743.5
491.928	11639.5
492.032	11816.5
492.136	11690.5
492.239	11786.5
492.343	11840.5
492.446	12170.5
492.55	11696.5
492.654	11511.5
492.757	11769.5
492.861	11912.5
492.965	11724.5
493.068	11768.5
493.172	11683.5
493.275	11673.5
493.379	11741.5
493.482	11861.5
493.586	11852.5
493.689	12008.5
493.793	11859.5
493.896	12037.5
494	11844.5
494.103	11998.5
494.207	12126.5
494.31	12340.5
494.414	12008.5
494.517	12000.5
494.621	11749.5
494.724	11761.5
494.828	11657.5
494.931	11572.5
495.034	11609.5
495.138	11808.5
495.241	11500.5
495.345	12455.5
495.448	11743.5
495.551	11529.5
495.655	11487.5
495.758	11600.5
495.861	11634.5
495.965	11703.5
496.068	11636.5
496.171	11751.5
496.274	11750.5
496.378	11747.5
496.481	11805.5
496.584	11781.5
496.687	12031.5
496.791	11862.5
496.894	12012.5
496.997	12204.5
497.1	12171.5
497.204	12393.5
497.307	12334.5
497.41	12824.5
497.513	12976.5
497.616	13036.5
497.719	13002.5
497.823	13263.5
497.926	13546.5
498.029	13727.5
498.132	14192.5
498.235	14474.5
498.338	14578.5
498.441	14578.5
498.544	14578.5
498.647	14578.5
498.75	14578.5
498.853	14578.5
498.956	14578.5
499.059	14578.5
499.163	14578.5
499.266	14578.5
499.369	14578.5
499.471	14578.5
499.574	14578.5
499.677	14578.5
499.78	14578.5
499.883	14578.5
499.986	14578.5
500.089	14578.5
500.192	14578.5
500.295	14578.5
500.398	14578.5
500.501	14578.5
500.604	14578.5
500.707	14578.5
500.809	14578.5
500.912	14578.5
501.015	14578.5
501.118	14578.5
501.221	14578.5
501.324	14578.5
501.426	14578.5
501.529	14578.5
501.632	14578.5
501.735	14578.5
501.837	14578.5
501.94	14578.5
502.043	14578.5
502.146	14443.5
502.248	14123.5
502.351	13753.5
502.454	13590.5
502.557	13151.5
502.659	12830.5
502.762	12453.5
502.865	12189.5
502.967	11904.5
503.07	11648.5
503.173	11452.5
503.275	11412.5
503.378	11273.5
503.48	11153.5
503.583	11128.5
503.686	11032.5
503.788	11293.5
503.891	10905.5
503.993	11313.5
504.096	11123.5
504.198	11292.5
504.301	11313.5
504.403	11423.5
504.506	11082.5
504.608	10844.5
504.711	10550.5
504.813	10251.5
504.916	9791.5
505.018	9605.5
505.121	9416.5
505.223	9305.5
505.326	9212.5
505.428	8986.5
505.531	8828.5
505.633	8808.5
505.735	8610.5
505.838	8536.5
505.94	8528.5
506.042	8504.5
506.145	8298.5
506.247	8380.5
506.35	8280.5
506.452	8247.5
506.554	8230.5
506.656	8151.5
506.759	8085.5
506.861	7929.5
506.963	7893.5
507.066	7954.5
507.168	8031.5
507.27	7772.5
507.372	7923.5
507.475	7722.5
507.577	7673.5
507.679	7724.5
507.781	7536.5
507.883	7641.5
507.986	7506.5
508.088	7546.5
508.19	7532.5
508.292	7578.5
508.394	7455.5
508.496	7359.5
508.598	7382.5
508.701	7437.5
508.803	7337.5
508.905	7213.5
509.007	7341.5
509.109	7364.5
509.211	7357.5
509.313	7278.5
509.415	7220.5
509.517	7253.5
509.619	7177.5
509.721	7294.5
509.823	7181.5
509.925	7294.5
510.027	7149.5
510.129	7126.5
510.231	7169.5
510.333	7119.5
510.435	7212.5
510.537	7248.5
510.639	7225.5
510.741	7188.5
510.843	7150.5
510.945	7194.5
511.047	7320.5
511.148	7164.5
511.25	7083.5
511.352	7259.5
511.454	6946.5
511.556	7276.5
511.658	7167.5
511.76	7213.5
511.861	7343.5
511.963	7135.5
512.065	7175.5
512.167	7111.5
512.268	7334.5
512.37	7254.5
512.472	7274.5
512.574	7322.5
512.676	7337.5
512.777	7144.5
512.879	7247.5
512.981	7213.5
513.082	7341.5
513.184	7204.5
513.286	7860.5
513.387	7388.5
513.489	7610.5
513.591	7394.5
513.692	7455.5
513.794	7465.5
513.896	7414.5
513.997	7392.5
514.099	7404.5
514.2	7446.5
514.302	7560.5
514.404	7503.5
514.505	7542.5
514.607	7746.5
514.708	7678.5
514.81	7749.5
514.911	7799.5
515.013	8043.5
515.114	8024.5
515.216	7917.5
515.317	8113.5
515.419	8117.5
515.52	8233.5
515.622	8197.5
515.723	8358.5
515.825	8668.5
515.926	8563.5
516.027	8670.5
516.129	8833.5
516.23	9038.5
516.332	9188.5
516.433	9302.5
516.534	9601.5
516.636	9727.5
516.737	9830.5
516.838	11178.5
516.94	10544.5
517.041	10672.5
517.142	11095.5
517.244	11277.5
517.345	11445.5
517.446	11432.5
517.547	11616.5
517.649	11600.5
517.75	11569.5
517.851	11497.5
517.952	11719.5
518.054	11262.5
518.155	11118.5
518.256	10812.5
518.357	10604.5
518.458	10273.5
518.56	10148.5
518.661	10053.5
518.762	9697.5
518.863	9664.5
518.964	9707.5
519.065	9369.5
519.166	9353.5
519.268	9133.5
519.369	9381.5
519.47	9052.5
519.571	9088.5
519.672	8879.5
519.773	8777.5
519.874	8693.5
519.975	8764.5
520.076	8761.5
520.177	8822.5
520.278	8718.5
520.379	8609.5
520.48	8652.5
520.581	8618.5
520.682	8551.5
520.783	8550.5
520.884	8610.5
520.985	8550.5
521.086	8541.5
521.187	8518.5
521.288	8418.5
521.389	8295.5
521.489	8188.5
521.59	8263.5
521.691	8358.5
521.792	8337.5
521.893	8464.5
521.994	8497.5
522.095	8221.5
522.195	8402.5
522.296	8462.5
522.397	8381.5
522.498	8286.5
522.599	8213.5
522.699	8351.5
522.8	8199.5
522.901	8475.5
523.002	8287.5
523.102	8528.5
523.203	8289.5
523.304	8570.5
523.405	8236.5
523.505	8135.5
523.606	8344.5
523.707	8260.5
523.807	8236.5
523.908	8284.5
524.009	8560.5
524.109	8371.5
524.21	8315.5
524.31	8226.5
524.411	8457.5
524.512	8442.5
524.612	8377.5
524.713	8573.5
524.813	8426.5
524.914	8712.5
525.014	14362.5
525.115	8678.5
525.216	8340.5
525.316	8300.5
525.417	8409.5
525.517	8342.5
525.618	8376.5
525.718	8300.5
525.819	8329.5
525.919	8426.5
526.019	8387.5
526.12	8543.5
526.22	8369.5
526.321	8316.5
526.421	8297.5
526.522	8381.5
526.622	8329.5
526.722	8286.5
526.823	8351.5
526.923	8470.5
527.023	8413.5
527.124	8420.5
527.224	8475.5
527.324	8311.5
527.425	8437.5
527.525	8333.5
527.625	8428.5
527.726	8272.5
527.826	8444.5
527.926	8397.5
528.026	8424.5
528.127	8404.5
528.227	8472.5
528.327	8457.5
528.427	8409.5
528.528	8408.5
528.628	8526.5
528.728	8332.5
528.828	8520.5
528.928	8517.5
529.029	8334.5
529.129	8389.5
529.229	8417.5
529.329	8363.5
529.429	8502.5
529.529	8492.5
529.629	8347.5
529.729	8303.5
529.829	8580.5
529.93	8292.5
530.03	8376.5
530.13	8340.5
530.23	8260.5
530.33	8346.5
530.43	8351.5
530.53	8356.5
530.63	8217.5
530.73	8199.5
530.83	8206.5
530.93	8092.5
531.03	8257.5
531.13	8275.5
531.23	8095.5
531.33	8347.5
531.429	8501.5
531.529	8351.5
531.629	8259.5
531.729	8126.5
531.829	8127.5
531.929	8122.5
532.029	8340.5
532.129	8046.5
532.229	8235.5
532.328	8050.5
532.428	8135.5
532.528	8185.5
532.628	7971.5
532.728	8063.5
532.827	7961.5
532.927	8127.5
533.027	7988.5
533.127	8126.5
533.227	7989.5
533.326	7992.5
533.426	7802.5
533.526	8038.5
533.625	8058.5
533.725	8121.5
533.825	7969.5
533.924	7873.5
534.024	7703.5
534.124	7625.5
534.223	7688.5
534.323	8297.5
534.423	7631.5
534.522	7737.5
534.622	7622.5
534.722	7558.5
534.821	7605.5
534.921	7460.5
535.02	7400.5
535.12	7531.5
535.219	7633.5
535.319	7474.5
535.419	7465.5
535.518	7340.5
535.618	7391.5
535.717	7357.5
535.817	7209.5
535.916	6975.5
536.016	7242.5
536.115	7109.5
536.215	7057.5
536.314	6933.5
536.413	6902.5
536.513	6925.5
536.612	7015.5
536.712	6792.5
536.811	6872.5
536.91	6765.5
537.01	6770.5
537.109	6848.5
537.209	6839.5
537.308	6805.5
537.407	6673.5
537.507	6799.5
537.606	6687.5
537.705	6723.5
537.805	6719.5
537.904	6575.5
538.003	6656.5
538.102	6784.5
538.202	6692.5
538.301	6657.5
538.4	6523.5
538.499	6588.5
538.599	6544.5
538.698	6640.5
538.797	6437.5
538.896	6596.5
538.995	6529.5
539.095	6395.5
539.194	6732.5
539.293	6404.5
539.392	6375.5
539.491	6351.5
539.59	6296.5
539.689	6582.5
539.789	6471.5
539.888	6113.5
539.987	6151.5
540.086	6327.5
540.185	6260.5
540.284	6284.5
540.383	6181.5
540.482	6227.5
540.581	6225.5
540.68	6189.5
540.779	6280.5
540.878	6112.5
540.977	6197.5
541.076	6200.5
541.175	6183.5
541.274	6339.5
541.373	6121.5
541.472	6142.5
541.571	5930.5
541.67	7613.5
541.769	6144.5
541.868	6066.5
541.966	5936.5
542.065	6072.5
542.164	6047.5
542.263	5941.5
542.362	6025.5
542.461	5968.5
542.56	5936.5
542.658	5945.5
542.757	5917.5
542.856	5839.5
542.955	5888.5
543.054	5877.5
543.152	5949.5
543.251	5889.5
543.35	6127.5
543.449	5908.5
543.547	5860.5
543.646	5824.5
543.745	5867.5
543.843	5914.5
543.942	5900.5
544.041	5935.5
544.14	6021.5
544.238	5936.5
544.337	6063.5
544.436	5854.5
544.534	6086.5
544.633	5958.5
544.731	6007.5
544.83	5991.5
544.929	6013.5
545.027	5963.5
545.126	6027.5
545.224	6122.5
545.323	5959.5
545.421	6047.5
545.52	6047.5
545.619	6152.5
545.717	5928.5
545.816	6127.5
545.914	6139.5
546.013	6217.5
546.111	6230.5
546.209	6007.5
546.308	5885.5
546.406	5837.5
546.505	6114.5
546.603	6005.5
546.702	5893.5
546.8	5817.5
546.899	5879.5
546.997	5955.5
547.095	5982.5
547.194	6035.5
547.292	5924.5
547.39	6119.5
547.489	6037.5
547.587	6514.5
547.685	5943.5
547.784	6267.5
547.882	6155.5
547.98	6040.5
548.079	6075.5
548.177	5969.5
548.275	5928.5
548.373	6130.5
548.472	6043.5
548.57	5960.5
548.668	6090.5
548.766	6005.5
548.864	6166.5
548.963	6022.5
549.061	6298.5
549.159	6033.5
549.257	6219.5
549.355	6108.5
549.454	6044.5
549.552	6196.5
549.65	6185.5
549.748	6125.5
549.846	6117.5
549.944	6115.5
550.042	6024.5
550.14	6092.5
550.238	6008.5
550.336	5836.5
550.434	5902.5
550.532	5927.5
550.631	5999.5
550.729	5962.5
550.827	5963.5
550.925	5987.5
551.023	5929.5
551.121	5860.5
551.218	5891.5
551.316	5817.5
551.414	5924.5
551.512	5828.5
551.61	5994.5
551.708	6030.5
551.806	6178.5
551.904	6053.5
552.002	6233.5
552.1	6179.5
552.198	6355.5
552.296	6488.5
552.393	6543.5
552.491	6656.5
552.589	6738.5
552.687	6828.5
552.785	6668.5
552.882	6979.5
552.98	7084.5
553.078	6828.5
553.176	6905.5
553.274	6887.5
553.371	6872.5
553.469	6746.5
553.567	6633.5
553.665	6652.5
553.762	7108.5
553.86	6724.5
553.958	6507.5
554.055	6404.5
554.153	6464.5
554.251	6332.5
554.348	6207.5
554.446	6080.5
554.544	6136.5
554.641	6354.5
554.739	6044.5
554.837	6059.5
554.934	5868.5
555.032	5878.5
555.129	5911.5
555.227	6152.5
555.324	9876.5
555.422	6020.5
555.519	5744.5
555.617	5621.5
555.715	5575.5
555.812	6035.5
555.91	5566.5
556.007	5672.5
556.105	5589.5
556.202	5571.5
556.299	5502.5
556.397	5500.5
556.494	5472.5
556.592	5437.5
556.689	5598.5
556.787	5469.5
556.884	5356.5
556.981	5437.5
557.079	5351.5
557.176	5398.5
557.273	5512.5
557.371	5508.5
557.468	5425.5
557.566	5415.5
557.663	5420.5
557.76	5427.5
557.857	5262.5
557.955	5359.5
558.052	5510.5
558.149	5533.5
558.247	5548.5
558.344	5369.5
558.441	5350.5
558.538	5311.5
558.636	5433.5
558.733	5446.5
558.83	5369.5
558.927	5441.5
559.024	5405.5
559.122	5367.5
559.219	5409.5
559.316	5552.5
559.413	5480.5
559.51	5424.5
559.607	5507.5
559.704	5466.5
559.801	5447.5
559.899	5551.5
559.996	5780.5
560.093	5502.5
560.19	5468.5
560.287	5601.5
560.384	5743.5
560.481	5457.5
560.578	5509.5
560.675	5424.5
560.772	5609.5
560.869	5510.5
560.966	5589.5
561.063	5477.5
561.16	5657.5
561.257	5615.5
561.354	5569.5
561.451	5671.5
561.548	5645.5
561.645	5750.5
561.742	5529.5
561.838	5630.5
561.935	5694.5
562.032	5662.5
562.129	5706.5
562.226	5610.5
562.323	5678.5
562.42	5814.5
562.516	5747.5
562.613	5753.5
562.71	5805.5
562.807	6616.5
562.904	5764.5
563	5850.5
563.097	5806.5
563.194	5878.5
563.291	5895.5
563.387	6027.5
563.484	6012.5
563.581	6052.5
563.678	6136.5
563.774	6484.5
563.871	6181.5
563.968	6184.5
564.064	6316.5
564.161	6238.5
564.258	6349.5
564.354	6562.5
564.451	6519.5
564.548	6709.5
564.644	6641.5
564.741	6665.5
564.837	6729.5
564.934	6866.5
565.031	6918.5
565.127	7142.5
565.224	7227.5
565.32	7452.5
565.417	7425.5
565.513	7580.5
565.61	7917.5
565.706	8015.5
565.803	8266.5
565.899	8387.5
565.996	8654.5
566.092	8875.5
566.189	9292.5
566.285	9692.5
566.382	9993.5
566.478	10516.5
566.574	10750.5
566.671	10708.5
566.767	10559.5
566.864	10748.5
566.96	10780.5
567.056	10743.5
567.153	11288.5
567.249	11410.5
567.345	11748.5
567.442	12277.5
567.538	12610.5
567.634	12658.5
567.731	12763.5
567.827	12962.5
567.923	12566.5
568.019	12000.5
568.116	11415.5
568.212	10871.5
568.308	10597.5
568.404	10141.5
568.501	9680.5
568.597	9500.5
568.693	9214.5
568.789	9584.5
568.885	8571.5
568.982	8305.5
569.078	7913.5
569.174	7716.5
569.27	7473.5
569.366	7446.5
569.462	7271.5
569.558	7071.5
569.655	7116.5
569.751	6914.5
569.847	6830.5
569.943	6741.5
570.039	6693.5
570.135	7098.5
570.231	6742.5
570.327	6892.5
570.423	6781.5
570.519	6817.5
570.615	6705.5
570.711	6877.5
570.807	6732.5
570.903	6725.5
570.999	6741.5
571.095	6651.5
571.191	6523.5
571.287	6405.5
571.383	6217.5
571.479	6224.5
571.574	6241.5
571.67	5990.5
571.766	6113.5
571.862	5828.5
571.958	5744.5
572.054	5750.5
572.15	5630.5
572.246	5510.5
572.341	5760.5
572.437	5599.5
572.533	5626.5
572.629	5510.5
572.725	5487.5
572.82	5392.5
572.916	5570.5
573.012	5396.5
573.108	5437.5
573.203	5284.5
573.299	5254.5
573.395	5355.5
573.49	5148.5
573.586	5138.5
573.682	5227.5
573.778	5461.5
573.873	5158.5
573.969	5065.5
574.065	5122.5
574.16	5217.5
574.256	5165.5
574.351	5327.5
574.447	5034.5
574.543	5160.5
574.638	5225.5
574.734	5160.5
574.829	5235.5
574.925	5020.5
575.02	4998.5
575.116	4928.5
575.212	4877.5
575.307	5123.5
575.403	4797.5
575.498	4807.5
575.594	4876.5
575.689	4921.5
575.784	4851.5
575.88	4856.5
575.975	4812.5
576.071	4777.5
576.166	4635.5
576.262	4766.5
576.357	4606.5
576.452	4881.5
576.548	4679.5
576.643	4678.5
576.739	4692.5
576.834	4695.5
576.929	4530.5
577.025	4798.5
577.12	4481.5
577.215	4452.5
577.311	4453.5
577.406	4464.5
577.501	4675.5
577.597	4273.5
577.692	4506.5
577.787	4542.5
577.882	4276.5
577.978	4252.5
578.073	4330.5
578.168	4122.5
578.263	4253.5
578.358	4223.5
578.454	4208.5
578.549	4192.5
578.644	4182.5
578.739	4165.5
578.834	4129.5
578.929	4084.5
579.025	4123.5
579.12	4097.5
579.215	4360.5
579.31	4348.5
579.405	3991.5
579.5	4146.5
579.595	4056.5
579.69	3965.5
579.785	4000.5
579.88	3932.5
579.975	3967.5
580.07	3869.5
580.165	3922.5
580.26	4101.5
580.355	3861.5
580.45	3818.5
580.545	3879.5
580.64	3876.5
580.735	3900.5
580.83	3965.5
580.925	3794.5
581.02	3737.5
581.115	3745.5
581.21	3673.5
581.305	3756.5
581.4	3742.5
581.495	3764.5
581.589	3740.5
581.684	3590.5
581.779	3886.5
581.874	3791.5
581.969	3696.5
582.064	3612.5
582.158	3663.5
582.253	3534.5
582.348	3653.5
582.443	3663.5
582.537	3609.5
582.632	3872.5
582.727	3634.5
582.822	3511.5
582.916	3499.5
583.011	3549.5
583.106	3566.5
583.201	3434.5
583.295	3584.5
583.39	3414.5
583.485	3424.5
583.579	5915.5
583.674	3694.5
583.769	3719.5
583.863	3402.5
583.958	3525.5
584.052	3327.5
584.147	3368.5
584.242	3430.5
584.336	3418.5
584.431	3609.5
584.525	3345.5
584.62	3604.5
584.714	3440.5
584.809	3408.5
584.903	3413.5
584.998	3381.5
585.092	3341.5
585.187	3430.5
585.281	3282.5
585.376	3321.5
585.47	3373.5
585.565	3374.5
585.659	3205.5
585.754	3311.5
585.848	3270.5
585.942	3215.5
586.037	3232.5
586.131	5908.5
586.226	3383.5
586.32	3288.5
586.414	3210.5
586.509	3352.5
586.603	3336.5
586.697	3350.5
586.792	3214.5
586.886	3249.5
586.98	3408.5
587.075	3185.5
587.169	3080.5
587.263	3492.5
587.357	3296.5
587.452	3198.5
587.546	3362.5
587.64	3241.5
587.734	3231.5
587.829	3397.5
587.923	3313.5
588.017	3243.5
588.111	3294.5
588.205	3471.5
588.3	3385.5
588.394	3481.5
588.488	3729.5
588.582	4023.5
588.676	4816.5
588.77	8796.5
588.864	14578.5
588.958	14578.5
589.052	13495.5
589.147	7936.5
589.241	5695.5
589.335	6057.5
589.429	12695.5
589.523	14578.5
589.617	12206.5
589.711	7477.5
589.805	5056.5
589.899	4071.5
589.993	3676.5
590.087	3464.5
590.181	3274.5
590.275	3365.5
590.369	3421.5
590.462	3149.5
590.556	3176.5
590.65	3205.5
590.744	3222.5
590.838	3173.5
590.932	3277.5
591.026	3267.5
591.12	3429.5
591.214	3237.5
591.307	3239.5
591.401	3252.5
591.495	3357.5
591.589	3273.5
591.683	3275.5
591.777	3346.5
591.87	3803.5
591.964	3368.5
592.058	3336.5
592.152	3518.5
592.245	3424.5
592.339	3580.5
592.433	3680.5
592.527	3664.5
592.62	3554.5
592.714	3723.5
592.808	3924.5
592.901	3851.5
592.995	3733.5
593.089	4117.5
593.182	3924.5
593.276	3786.5
593.37	3786.5
593.463	3827.5
593.557	3832.5
593.65	3854.5
593.744	3979.5
593.837	3991.5
593.931	3863.5
594.025	7268.5
594.118	4135.5
594.212	3812.5
594.305	3731.5
594.399	3747.5
594.492	3910.5
594.586	3473.5
594.679	3428.5
594.773	3351.5
594.866	3383.5
594.96	3340.5
595.053	3215.5
595.146	3120.5
595.24	3124.5
595.333	3028.5
595.427	2924.5
595.52	3011.5
595.614	3164.5
595.707	3004.5
595.8	2890.5
595.894	2839.5
595.987	2727.5
596.08	2677.5
596.174	3095.5
596.267	2829.5
596.36	2791.5
596.454	2902.5
596.547	2746.5
596.64	2525.5
596.733	2542.5
596.827	2710.5
596.92	2595.5
597.013	2438.5
597.106	2561.5
597.2	2450.5
597.293	2450.5
597.386	2719.5
597.479	2520.5
597.572	2510.5
597.666	2471.5
597.759	2409.5
597.852	2537.5
597.945	2440.5
598.038	2439.5
598.131	2392.5
598.224	2417.5
598.317	2452.5
598.411	2406.5
598.504	2352.5
598.597	2441.5
598.69	2361.5
598.783	2325.5
598.876	2432.5
598.969	2391.5
599.062	2246.5
599.155	2375.5
599.248	2244.5
599.341	2340.5
599.434	2314.5
599.527	2418.5
599.62	2313.5
599.713	2233.5
599.806	2412.5
599.899	2491.5
599.991	2234.5
600.084	2557.5
600.177	2185.5
600.27	2216.5
600.363	2640.5
600.456	2265.5
600.549	2279.5
600.642	2209.5
600.734	2221.5
600.827	2205.5
600.92	2333.5
601.013	2284.5
601.106	2293.5
601.199	2211.5
601.291	2255.5
601.384	2255.5
601.477	2380.5
601.57	2342.5
601.662	2188.5
601.755	2208.5
601.848	2299.5
601.94	2174.5
602.033	2286.5
602.126	2180.5
602.219	2222.5
602.311	2312.5
602.404	2173.5
602.497	2174.5
602.589	2058.5
602.682	2193.5
602.774	2275.5
602.867	2189.5
602.96	2179.5
603.052	2196.5
603.145	2143.5
603.237	2135.5
603.33	2103.5
603.422	2316.5
603.515	2132.5
603.608	2142.5
603.7	2141.5
603.793	2114.5
603.885	2136.5
603.978	2185.5
604.07	2150.5
604.163	2077.5
604.255	2165.5
604.347	2156.5
604.44	1994.5
604.532	2192.5
604.625	2104.5
604.717	1974.5
604.81	2180.5
604.902	2106.5
604.994	2042.5
605.087	2021.5
605.179	2066.5
605.271	2085.5
605.364	2100.5
605.456	2129.5
605.548	2084.5
605.641	2103.5
605.733	2053.5
605.825	2172.5
605.918	1995.5
606.01	2230.5
606.102	2464.5
606.194	1956.5
606.287	2279.5
606.379	2082.5
606.471	2070.5
606.563	2026.5
606.655	2072.5
606.748	2146.5
606.84	2018.5
606.932	2127.5
607.024	2042.5
607.116	1982.5
607.208	2040.5
607.301	2145.5
607.393	2030.5
607.485	1985.5
607.577	2045.5
607.669	2143.5
607.761	2041.5
607.853	2361.5
607.945	2012.5
608.037	1921.5
608.129	1972.5
608.221	1990.5
608.313	2039.5
608.405	2072.5
608.497	2058.5
608.589	1941.5
608.681	2001.5
608.773	2048.5
608.865	2072.5
608.957	1992.5
609.049	1920.5
609.141	2149.5
609.233	1993.5
609.325	1928.5
609.417	2004.5
609.509	2043.5
609.601	2142.5
609.693	2098.5
609.784	1907.5
609.876	1974.5
609.968	2083.5
610.06	4450.5
610.152	2232.5
610.244	2271.5
610.335	2017.5
610.427	1943.5
610.519	1902.5
610.611	1996.5
610.702	1867.5
610.794	1961.5
610.886	2036.5
610.978	1903.5
611.069	2382.5
611.161	1901.5
611.253	1957.5
611.344	1754.5
611.436	1757.5
611.528	1845.5
611.62	1697.5
611.711	1730.5
611.803	1710.5
611.894	1682.5
611.986	1668.5
612.078	1700.5
612.169	1684.5
612.261	1632.5
612.352	1596.5
612.444	1578.5
612.536	1600.5
612.627	1506.5
612.719	1485.5
612.81	1393.5
612.902	1369.5
612.993	1463.5
613.085	1413.5
613.176	1298.5
613.268	1396.5
613.359	1285.5
613.451	1303.5
613.542	1351.5
613.634	1304.5
613.725	1213.5
613.816	1346.5
613.908	1237.5
613.999	1205.5
614.091	1056.5
614.182	1144.5
614.273	1144.5
614.365	1038.5
614.456	1029.5
614.547	1006.5
614.639	954.5
614.73	997.5
614.821	1050.5
614.913	872.5
615.004	814.5
615.095	860.5
615.187	826.5
